1.0638
1.0203
0.90662
0.73988
0.54356
0.339
0.14522
-0.02176
-0.15404
-0.24904
-0.30692
-0.33058
-0.32567
-0.30013
-0.26191
-0.21895
-0.17734
-0.14119
-0.11261
-0.091687
-0.077102
-0.067423
-0.061136
-0.05699
-0.053998
-0.051441
-0.048861
-0.046066
-0.043115
-0.039921
-0.036378
-0.032442
-0.028072
-0.023227
-0.017867
-0.011955
-0.0054525
0.0016754
0.0094627
0.017918
0.027069
0.036948
0.047575
0.05896
0.071099
0.083977
0.097569
0.11184
0.12673
0.14219
0.15813
0.17449
0.19115
0.20801
0.22495
0.24184
0.25853
0.27488
0.29077
0.30607
0.32058
0.33416
0.34664
0.3579
0.36782
0.37629
0.38323
0.38856
0.39222
0.39418
0.39439
0.39286
0.38958
0.38452
0.3776
0.36895
0.35876
0.3472
0.33444
0.32063
0.30594
0.2905
0.27447
0.25797
0.24114
0.22411
0.20699
0.1899
0.17294
0.15623
0.13984
0.12388
0.10843
0.093566
0.079361
0.065883
0.053194
0.041348
0.030394
0.020344
0.011157
0.0027921
-0.0047932
-0.011639
-0.017787
-0.023275
-0.028142
-0.032427
-0.036166
-0.039398
-0.042157
-0.04448
-0.046401
-0.047953
-0.049171
-0.050087
-0.050733
-0.051141
-0.05134
-0.051362
-0.051235
-0.050987
-0.050648
-0.050216
-0.049664
-0.049012
-0.048278
-0.047478
-0.046628
-0.045741
-0.04483
-0.043906
-0.042975
-0.042048
-0.041128
-0.04022
-0.039326
-0.038448
-0.037585
-0.036735
-0.035893
-0.035055
-0.034212
-0.033358
-0.03249
-0.031612
-0.03073
-0.029848
-0.028969
-0.028095
-0.02723
-0.026374
-0.025529
-0.024696
-0.023873
-0.023061
-0.022259
-0.021464
-0.020673
-0.019885
-0.019094
-0.018298
-0.01749
-0.016666
-0.01582
-0.014945
-0.014033
-0.013077
-0.012068
-0.010998
-0.0098573
-0.0086258
-0.0072597
-0.0057125
-0.0039313
-0.0018566
0.00057738
0.0034432
0.0068199
0.010793
0.015455
0.020903
0.027244
0.03459
0.043028
0.052601
0.063378
0.075381
0.088588
0.10293
0.1183
0.13452
0.1514
0.16869
0.18607
0.20322
0.21973
0.23522
0.24937
0.26175
0.27202
0.27987
0.28511
0.28761
0.28729
0.28418
0.27836
0.27001
0.25936
0.24663
0.23217
0.21647
0.19994
0.18298
0.16595
0.14916
0.13288
0.11734
0.10275
0.089248
0.076956
0.065948
0.056333
0.048909
0.043324
0.038905
0.035043
0.031196
0.026885
0.021696
0.015281
0.0073535
-0.0023044
-0.013848
-0.027367
-0.042888
-0.06037
-0.079709
-0.10074
-0.12322
-0.14292
-0.15039
-0.13844
-0.10135
-0.034912
0.063619
0.19549
0.36157
0.55057
0.74014
0.90985
1.0413
1.1182
1.1264
1.0557
0.91907
0.73996
0.53986
0.33805
0.15169
-0.004588
-0.12425
-0.20661
-0.25313
-0.26743
-0.25531
-0.22476
-0.18441
-0.14113
-0.10041
-0.065838
-0.039085
-0.019908
-0.0066086
0.0022235
0.008041
0.012031
0.015095
0.017846
0.020611
0.023466
0.026544
0.029921
0.033646
0.037764
0.042317
0.047348
0.052894
0.058994
0.065679
0.072957
0.080872
0.089471
0.098789
0.10885
0.11966
0.13123
0.14355
0.1566
0.17035
0.18475
0.19976
0.21531
0.23132
0.24772
0.2644
0.28126
0.29818
0.31508
0.33183
0.34825
0.36415
0.37939
0.39382
0.40729
0.41967
0.43085
0.44071
0.44917
0.45613
0.46151
0.46525
0.46728
0.46758
0.46607
0.46263
0.45733
0.45031
0.44172
0.43169
0.42036
0.40787
0.39435
0.37992
0.36473
0.34888
0.3325
0.31573
0.29867
0.28145
0.26417
0.24696
0.22992
0.21316
0.1968
0.18092
0.16564
0.15106
0.13728
0.12437
0.11232
0.1011
0.090694
0.081097
0.07229
0.064254
0.056966
0.0504
0.044526
0.039311
0.034718
0.030709
0.027239
0.024262
0.021728
0.019584
0.017786
0.016308
0.015115
0.014179
0.013469
0.01296
0.012628
0.012452
0.012412
0.012491
0.012676
0.012954
0.013316
0.013753
0.014262
0.014838
0.015473
0.016111
0.016744
0.017373
0.017997
0.018617
0.019233
0.019843
0.02045
0.021052
0.021649
0.022242
0.02283
0.023414
0.023998
0.02459
0.025186
0.025782
0.026374
0.02696
0.027537
0.028103
0.028657
0.029197
0.029723
0.030236
0.030736
0.031224
0.031701
0.032171
0.032635
0.033098
0.033562
0.034032
0.034513
0.035011
0.03553
0.036078
0.036662
0.037288
0.037966
0.038702
0.039508
0.04041
0.041455
0.042695
0.044189
0.045999
0.048192
0.050841
0.054024
0.057823
0.062328
0.067631
0.073829
0.081027
0.089332
0.098839
0.10957
0.1215
0.13459
0.14875
0.16384
0.17972
0.19616
0.21294
0.22977
0.24634
0.26231
0.27727
0.2908
0.30244
0.31191
0.31897
0.32345
0.3252
0.32418
0.3204
0.31394
0.30495
0.29365
0.28034
0.26537
0.24917
0.23218
0.2147
0.19711
0.17977
0.16295
0.14691
0.13185
0.11791
0.10521
0.093798
0.083688
0.074842
0.067715
0.06352
0.061031
0.05901
0.056415
0.052403
0.04633
0.037751
0.026417
0.012279
-0.0045132
-0.023613
-0.044474
-0.066353
-0.088306
-0.10919
-0.12761
-0.1373
-0.12893
-0.095842
-0.033369
0.061149
0.18837
0.34716
0.5336
0.72608
0.90148
1.0401
1.1258
1.1456
1.0905
0.96539
0.79315
0.59564
0.39229
0.19996
0.033003
-0.098641
-0.1933
-0.25203
-0.27777
-0.27531
-0.25128
-0.21416
-0.17185
-0.13
-0.092796
-0.062685
-0.040409
-0.024984
-0.014535
-0.0077631
-0.0033801
-0.000368
0.0020227
0.0042727
0.0065938
0.0090398
0.011747
0.014767
0.018143
0.021919
0.026137
0.030836
0.036053
0.041824
0.048172
0.055107
0.062678
0.070929
0.079892
0.089588
0.10003
0.11122
0.12314
0.13577
0.1491
0.16306
0.17762
0.1927
0.20825
0.22416
0.24035
0.25672
0.27315
0.28952
0.30576
0.3217
0.33716
0.35199
0.36603
0.37915
0.39121
0.40211
0.41172
0.41996
0.42674
0.43197
0.4356
0.43757
0.43783
0.43635
0.43302
0.42781
0.42087
0.41232
0.4023
0.39095
0.3784
0.36478
0.35022
0.33484
0.31877
0.30213
0.28503
0.2676
0.24996
0.2322
0.21445
0.19682
0.1794
0.16231
0.14565
0.12952
0.11401
0.099228
0.085262
0.072178
0.059941
0.04853
0.037927
0.028112
0.019062
0.010753
0.0031617
-0.0037407
-0.0099822
-0.015593
-0.020605
-0.025052
-0.028969
-0.032392
-0.035361
-0.037914
-0.040095
-0.041945
-0.04351
-0.044837
-0.04597
-0.046927
-0.047718
-0.048358
-0.04886
-0.049238
-0.049502
-0.049666
-0.049742
-0.049741
-0.049675
-0.049554
-0.04939
-0.049194
-0.048974
-0.048742
-0.048507
-0.048278
-0.048064
-0.047859
-0.047658
-0.047459
-0.047263
-0.04707
-0.046879
-0.046691
-0.046506
-0.046324
-0.046144
-0.045968
-0.045793
-0.045622
-0.045452
-0.045286
-0.045121
-0.044959
-0.0448
-0.044642
-0.044486
-0.044332
-0.04418
-0.044029
-0.043879
-0.043709
-0.043522
-0.04333
-0.043142
-0.042962
-0.042789
-0.042621
-0.04245
-0.042264
-0.042046
-0.041778
-0.041435
-0.040991
-0.040412
-0.039663
-0.038705
-0.037493
-0.035979
-0.034116
-0.031865
-0.029105
-0.025705
-0.021548
-0.016534
-0.010577
-0.003606
0.0044348
0.013586
0.023873
0.035306
0.047882
0.06158
0.076385
0.092095
0.1084
0.125
0.14159
0.15784
0.17346
0.18813
0.20155
0.21338
0.22333
0.23107
0.2363
0.23873
0.23834
0.23522
0.22947
0.22125
0.21075
0.1982
0.18387
0.16809
0.15121
0.13362
0.11576
0.098034
0.080681
0.063958
0.04808
0.033221
0.019513
0.0070442
-0.0041384
-0.014031
-0.022673
-0.030146
-0.03661
-0.042199
-0.046913
-0.050897
-0.054449
-0.058022
-0.062226
-0.067823
-0.075733
-0.087028
-0.10278
-0.12328
-0.14792
-0.17479
-0.20059
-0.22068
-0.22929
-0.22055
-0.18771
-0.12581
-0.032021
0.094331
0.25196
0.43524
0.62577
0.80369
0.95
1.0465
1.0758
1.0278
0.91346
0.74951
0.55423
0.34763
0.15123
-0.019468
-0.15777
-0.25997
-0.32536
-0.35624
-0.35793
-0.33741
-0.30235
-0.26073
-0.21875
-0.18082
-0.14956
-0.12582
-0.10865
-0.096582
-0.088486
-0.083337
-0.08024
-0.078421
-0.077232
-0.076149
-0.074771
-0.07282
-0.070144
-0.066714
-0.062623
-0.058091
-0.053432
-0.048426
-0.042879
-0.036748
-0.029997
-0.022595
-0.014518
-0.0057448
0.0037383
0.01394
0.024865
0.036509
0.048867
0.061932
0.075669
0.090017
0.10491
0.12027
0.13603
0.15208
0.16834
0.18471
0.20106
0.21729
0.23327
0.24888
0.26396
0.27838
0.29197
0.30459
0.31608
0.32636
0.33531
0.34283
0.34882
0.3532
0.35593
0.35695
0.35626
0.35385
0.34973
0.34394
0.33653
0.32757
0.31715
0.30537
0.29237
0.27828
0.2632
0.24727
0.23064
0.21347
0.19593
0.17815
0.16027
0.14241
0.12469
0.10723
0.090124
0.073463
0.057333
0.041811
0.026964
0.012851
-0.00047011
-0.012975
-0.024668
-0.035557
-0.045652
-0.054969
-0.063523
-0.071336
-0.078429
-0.08483
-0.090568
-0.095673
-0.10018
-0.10414
-0.10757
-0.11053
-0.11307
-0.11524
-0.11708
-0.11865
-0.11996
-0.12103
-0.12188
-0.12253
-0.12299
-0.12328
-0.12341
-0.12341
-0.12328
-0.12305
-0.12273
-0.12233
-0.12188
-0.12138
-0.12085
-0.12031
-0.11977
-0.11925
-0.11875
-0.11825
-0.11775
-0.11725
-0.11675
-0.11625
-0.11575
-0.11525
-0.11474
-0.11424
-0.11374
-0.11324
-0.11274
-0.11223
-0.11173
-0.11123
-0.11072
-0.11022
-0.10971
-0.10921
-0.1087
-0.1082
-0.10769
-0.10718
-0.10666
-0.10609
-0.10549
-0.10489
-0.10428
-0.10368
-0.10311
-0.10255
-0.102
-0.10146
-0.10092
-0.10037
-0.099767
-0.099107
-0.098357
-0.097484
-0.096453
-0.095223
-0.09375
-0.091985
-0.089875
-0.087363
-0.084389
-0.080887
-0.076787
-0.072016
-0.066497
-0.060148
-0.052882
-0.044609
-0.035236
-0.024664
-0.012789
0.00041739
0.014751
0.030048
0.046121
0.062756
0.079713
0.096721
0.11348
0.12967
0.14493
0.15889
0.17113
0.18132
0.18924
0.19465
0.19743
0.19747
0.19479
0.18943
0.18154
0.1713
0.15898
0.14493
0.12953
0.11312
0.096064
0.078757
0.061532
0.044687
0.028475
0.013111
-0.0012356
-0.014435
-0.026399
-0.037159
-0.046708
-0.054985
-0.061995
-0.06781
-0.072569
-0.076475
-0.0798
-0.082881
-0.086123
-0.089995
-0.094988
-0.10185
-0.1124
-0.12769
-0.14783
-0.17193
-0.19813
-0.22359
-0.24445
-0.25402
-0.24576
-0.21425
-0.15516
-0.065252
0.0576
0.21399
0.39439
0.58337
0.76396
0.91766
1.0245
1.0633
1.0259
0.92141
0.76371
0.57051
0.36349
0.16661
-0.0061537
-0.14643
-0.24963
-0.31527
-0.34616
-0.34748
-0.32724
-0.2929
-0.25125
-0.20837
-0.16967
-0.13865
-0.11504
-0.097877
-0.086058
-0.078372
-0.073489
-0.06998
-0.067026
-0.064356
-0.06173
-0.058959
-0.055907
-0.052492
-0.048685
-0.044495
-0.039871
-0.034763
-0.029128
-0.022926
-0.016123
-0.0086881
-0.00059265
0.0081868
0.01767
0.027875
0.038812
0.050492
0.062912
0.076049
0.089868
0.10433
0.11937
0.13494
0.15095
0.16734
0.18401
0.20085
0.21776
0.23462
0.2513
0.26767
0.28357
0.29884
0.31333
0.32688
0.33941
0.35076
0.36082
0.36945
0.37655
0.38205
0.38589
0.38801
0.38839
0.38703
0.38394
0.37915
0.37271
0.36468
0.35516
0.34425
0.33208
0.31874
0.30435
0.28907
0.27307
0.25651
0.23954
0.2223
0.20494
0.18758
0.17033
0.15332
0.13665
0.12041
0.1047
0.089591
0.075162
0.061479
0.048603
0.036546
0.025305
0.014872
0.0052364
-0.0036146
-0.011698
-0.019034
-0.025646
-0.03156
-0.036805
-0.041415
-0.045425
-0.048874
-0.051804
-0.054262
-0.056295
-0.057956
-0.0593
-0.060374
-0.0612
-0.061793
-0.062166
-0.062335
-0.062317
-0.062127
-0.061782
-0.061297
-0.060691
-0.059979
-0.059181
-0.058313
-0.057394
-0.056443
-0.055478
-0.054519
-0.053584
-0.052669
-0.051755
-0.050843
-0.049933
-0.049024
-0.048117
-0.047211
-0.046307
-0.045405
-0.044504
-0.043605
-0.042708
-0.041812
-0.040919
-0.040026
-0.039136
-0.038247
-0.037359
-0.036474
-0.03559
-0.034708
-0.033822
-0.032932
-0.032043
-0.031157
-0.030276
-0.029401
-0.028532
-0.027667
-0.026804
-0.02594
-0.02507
-0.024189
-0.02329
-0.022365
-0.021407
-0.020405
-0.019348
-0.018225
-0.017047
-0.015812
-0.014444
-0.012867
-0.011006
-0.0087859
-0.0061311
-0.0029677
0.0007778
0.0051786
0.010307
0.016236
0.023035
0.030778
0.039532
0.04937
0.06036
0.07257
0.086101
0.10106
0.11714
0.13399
0.15127
0.16866
0.18582
0.20247
0.21831
0.23304
0.24641
0.25815
0.26802
0.27577
0.28118
0.28404
0.28414
0.28129
0.27546
0.26698
0.25624
0.24364
0.22951
0.21423
0.19811
0.18147
0.16463
0.14786
0.13144
0.11563
0.10067
0.086803
0.074205
0.062729
0.052462
0.043527
0.035971
0.029758
0.024776
0.020834
0.017658
0.014901
0.012132
0.0088444
0.0044502
-0.0017165
-0.010444
-0.023081
-0.040588
-0.062761
-0.088223
-0.11443
-0.13752
-0.15161
-0.15066
-0.12892
-0.080994
-0.0022321
0.10982
0.2551
0.42803
0.61731
0.8059
0.97174
1.0923
1.1492
1.1335
1.0459
0.89699
0.70676
0.502
0.30199
0.12227
-0.026339
-0.13798
-0.21174
-0.24966
-0.25688
-0.24112
-0.2096
-0.16908
-0.1258
-0.085528
-0.052679
-0.027454
-0.0089641
0.0038465
0.012213
0.01755
0.021371
0.024447
0.027145
0.029769
0.032541
0.035599
0.038996
0.042727
0.046848
0.051407
0.056443
0.061994
0.068096
0.074785
0.082095
0.090057
0.0987
0.10804
0.11809
0.12887
0.14039
0.15265
0.16564
0.17931
0.19364
0.20858
0.22406
0.24001
0.25635
0.27298
0.28979
0.30667
0.32352
0.34024
0.35664
0.37255
0.38781
0.40228
0.4158
0.42826
0.43953
0.4495
0.45807
0.46516
0.47069
0.4746
0.47682
0.47732
0.47605
0.4729
0.46785
0.46105
0.45264
0.44278
0.43159
0.41922
0.40581
0.39148
0.37636
0.36059
0.34427
0.32755
0.31052
0.29332
0.27605
0.25882
0.24174
0.22491
0.20844
0.19242
0.17696
0.16215
0.14807
0.13481
0.12245
0.11094
0.10025
0.09037
0.081286
0.072975
0.065414
0.058576
0.052434
0.046955
0.042106
0.037849
0.034145
0.03095
0.028219
0.025905
0.023955
0.022329
0.021005
0.019951
0.019134
0.018527
0.018104
0.017841
0.017715
0.017708
0.017802
0.017982
0.018236
0.018603
0.01909
0.019658
0.020276
0.020918
0.021564
0.0222
0.022817
0.023413
0.023991
0.024561
0.025135
0.02571
0.026281
0.026847
0.027408
0.027966
0.028519
0.029067
0.029611
0.030151
0.030686
0.031217
0.031744
0.032266
0.032784
0.033297
0.033807
0.034313
0.034818
0.03532
0.035817
0.036309
0.036794
0.037274
0.037751
0.038225
0.038701
0.039182
0.039673
0.040178
0.040705
0.041259
0.041849
0.042486
0.043191
0.043988
0.044908
0.045991
0.047279
0.048827
0.050693
0.052944
0.055652
0.058897
0.062767
0.067356
0.072764
0.079101
0.08648
0.094962
0.10459
0.11542
0.12746
0.14066
0.15495
0.17019
0.18622
0.20282
0.21972
0.23663
0.25317
0.26897
0.28373
0.29704
0.3085
0.31779
0.32464
0.32887
0.33036
0.32908
0.32503
0.31834
0.30917
0.29777
0.28439
0.26932
0.25302
0.23594
0.21844
0.2009
0.18361
0.16685
0.15084
0.13577
0.12179
0.10901
0.097484
0.087245
0.078255
0.070448
0.063799
0.058223
0.053567
0.049611
0.046065
0.042573
0.038778
0.034573
0.028051
0.017558
0.0022756
-0.017782
-0.041764
-0.067987
-0.093932
-0.11602
-0.12779
-0.12234
-0.093902
-0.037846
0.049313
0.16992
0.32518
0.50492
0.69304
0.87228
1.0242
1.1292
1.1665
1.1255
1.0174
0.85767
0.6643
0.45746
0.25947
0.086291
-0.054937
-0.16002
-0.22801
-0.26116
-0.26485
-0.24558
-0.21159
-0.17045
-0.12827
-0.08967
-0.0578
-0.033898
-0.016736
-0.0048761
0.0029911
0.008042
0.011322
0.013746
0.015971
0.018178
0.020493
0.02302
0.025844
0.029032
0.032631
0.036668
0.041157
0.046138
0.051659
0.057762
0.064484
0.071855
0.079901
0.08864
0.098088
0.10825
0.11914
0.13074
0.14304
0.15606
0.16986
0.18435
0.19942
0.21495
0.23085
0.24698
0.26325
0.27953
0.29572
0.3117
0.32735
0.34256
0.35721
0.37119
0.38439
0.39667
0.40793
0.41804
0.4269
0.43437
0.44034
0.44469
0.44729
0.44806
0.44703
0.44424
0.43976
0.43366
0.426
0.41687
0.40636
0.39456
0.38156
0.36748
0.35242
0.3365
0.31985
0.30259
0.28487
0.26683
0.24861
0.23038
0.2123
0.19453
0.17723
0.16042
0.14417
0.12853
0.11356
0.099313
0.085813
0.073094
0.061174
0.050066
0.039772
0.030287
0.021597
0.013678
0.0065008
2.5413e-05
-0.0057961
-0.01102
-0.015692
-0.019828
-0.023473
-0.02667
-0.029457
-0.031875
-0.033958
-0.035742
-0.037257
-0.038534
-0.0396
-0.040481
-0.041201
-0.04178
-0.042238
-0.042593
-0.042857
-0.04302
-0.043092
-0.043086
-0.043017
-0.042896
-0.042737
-0.042548
-0.042339
-0.042118
-0.041893
-0.041669
-0.041452
-0.041243
-0.041048
-0.040866
-0.040698
-0.040544
-0.040402
-0.040268
-0.040138
-0.040008
-0.039871
-0.039728
-0.039583
-0.039439
-0.039298
-0.039159
-0.039025
-0.038895
-0.03877
-0.038649
-0.038533
-0.038421
-0.038311
-0.038204
-0.038097
-0.037988
-0.037876
-0.037759
-0.037634
-0.037499
-0.037349
-0.037183
-0.036996
-0.036805
-0.036638
-0.036451
-0.036196
-0.035824
-0.035282
-0.034517
-0.033473
-0.032095
-0.030322
-0.028095
-0.025351
-0.022027
-0.018055
-0.01337
-0.0079007
-0.0015769
0.0056746
0.013928
0.023261
0.03375
0.045476
0.058527
0.072878
0.088241
0.10431
0.12077
0.13732
0.15367
0.16953
0.18459
0.19857
0.21119
0.22217
0.23122
0.23809
0.24249
0.24415
0.24283
0.23848
0.23141
0.22195
0.21041
0.19712
0.18238
0.16649
0.14976
0.13248
0.11495
0.09744
0.080237
0.063613
0.047838
0.033176
0.019823
0.0076524
-0.0032623
-0.01286
-0.021138
-0.028154
-0.034026
-0.038931
-0.043105
-0.046846
-0.050508
-0.054507
-0.05932
-0.065449
-0.074109
-0.086876
-0.10445
-0.12659
-0.15215
-0.17905
-0.20416
-0.2217
-0.2254
-0.20959
-0.16918
-0.099697
0.0027119
0.13882
0.30359
0.48738
0.6761
0.85119
0.98962
1.0677
1.0752
1.0114
0.88343
0.70623
0.5026
0.29834
0.10912
-0.053437
-0.18173
-0.27224
-0.32552
-0.34609
-0.33934
-0.31327
-0.27595
-0.23409
-0.1931
-0.15703
-0.12858
-0.10789
-0.09338
-0.083577
-0.077182
-0.073073
-0.070307
-0.068115
-0.065992
-0.063793
-0.061426
-0.058811
-0.055879
-0.052568
-0.04883
-0.044623
-0.039919
-0.034697
-0.028951
-0.022628
-0.015673
-0.0080455
0.00028999
0.009357
0.01917
0.029733
0.041042
0.053082
0.065829
0.079247
0.093294
0.10792
0.12305
0.13862
0.15455
0.17075
0.18711
0.20357
0.21996
0.23612
0.2519
0.26716
0.28174
0.29553
0.30839
0.32019
0.33083
0.34019
0.34818
0.35468
0.35962
0.3629
0.36444
0.36421
0.36223
0.35854
0.35319
0.34626
0.3378
0.32789
0.31664
0.30412
0.29045
0.27574
0.26011
0.2437
0.22665
0.20912
0.19124
0.17321
0.15519
0.13735
0.11977
0.10252
0.085722
0.069446
0.053772
0.038764
0.024476
0.010951
-0.0017789
-0.013692
-0.024778
-0.035036
-0.044477
-0.053122
-0.061003
-0.068161
-0.074613
-0.080388
-0.085535
-0.090099
-0.094122
-0.097648
-0.10072
-0.10336
-0.10563
-0.10755
-0.10916
-0.11048
-0.11155
-0.1124
-0.11305
-0.11353
-0.11387
-0.11407
-0.11417
-0.11415
-0.11401
-0.11377
-0.11346
-0.11307
-0.11264
-0.11216
-0.11165
-0.11113
-0.11059
-0.11005
-0.10951
-0.10898
-0.10846
-0.10795
-0.10746
-0.10697
-0.1065
-0.10604
-0.10559
-0.10513
-0.10467
-0.10419
-0.10368
-0.10315
-0.1026
-0.10205
-0.10149
-0.10094
-0.10041
-0.099888
-0.099385
-0.098902
-0.098439
-0.097995
-0.097569
-0.097159
-0.09676
-0.096367
-0.095975
-0.095577
-0.095163
-0.094726
-0.094254
-0.093737
-0.09316
-0.092512
-0.091778
-0.09094
-0.089983
-0.088889
-0.087638
-0.086209
-0.084543
-0.082545
-0.080121
-0.077181
-0.073637
-0.069404
-0.064398
-0.05854
-0.051752
-0.04396
-0.03509
-0.025074
-0.013845
-0.0013852
0.012225
0.026882
0.042444
0.058731
0.075525
0.09257
0.10957
0.1262
0.14207
0.1568
0.17003
0.18144
0.19068
0.1975
0.20172
0.20322
0.20195
0.19795
0.19133
0.18226
0.171
0.15776
0.14294
0.12696
0.11021
0.093048
0.075812
0.058796
0.042268
0.026462
0.011583
-0.0021953
-0.014754
-0.026144
-0.036283
-0.045103
-0.052603
-0.058846
-0.063958
-0.068132
-0.071623
-0.074753
-0.077908
-0.081538
-0.086157
-0.092256
-0.10118
-0.11456
-0.13298
-0.15593
-0.18182
-0.20795
-0.23071
-0.24499
-0.24346
-0.21988
-0.16947
-0.088817
0.024065
0.16984
0.34553
0.53516
0.72014
0.88185
1.0016
1.0606
1.0435
0.95429
0.8057
0.61637
0.41068
0.21137
0.033767
-0.11156
-0.21934
-0.28891
-0.32288
-0.32735
-0.30899
-0.27485
-0.2324
-0.18943
-0.15153
-0.12034
-0.096445
-0.079587
-0.068628
-0.061583
-0.056724
-0.053269
-0.050545
-0.048049
-0.045451
-0.04259
-0.039468
-0.036031
-0.032213
-0.027971
-0.023264
-0.018053
-0.0123
-0.005967
0.00098214
0.0085823
0.016858
0.02582
0.035501
0.045926
0.057107
0.069045
0.081729
0.095135
0.10923
0.12396
0.13928
0.15511
0.17137
0.18797
0.20479
0.22173
0.23865
0.25541
0.27185
0.28789
0.30336
0.31809
0.33191
0.34468
0.35625
0.3665
0.37533
0.38264
0.38836
0.39242
0.39478
0.3954
0.39427
0.39139
0.38673
0.38018
0.37188
0.36202
0.35076
0.33826
0.32469
0.3102
0.29493
0.27904
0.26265
0.2459
0.22891
0.21181
0.19471
0.17772
0.16094
0.14448
0.12842
0.11285
0.097856
0.083512
0.06989
0.057055
0.045065
0.033975
0.023788
0.014464
0.0059625
-0.001756
-0.0087307
-0.015
-0.020603
-0.025577
-0.029959
-0.033786
-0.037095
-0.039922
-0.042303
-0.044272
-0.045865
-0.047116
-0.048058
-0.048725
-0.04915
-0.049366
-0.049404
-0.049296
-0.049074
-0.04875
-0.048282
-0.047688
-0.046992
-0.046214
-0.045373
-0.044487
-0.04357
-0.042636
-0.041695
-0.040756
-0.039827
-0.038912
-0.038015
-0.037136
-0.036274
-0.035427
-0.034589
-0.033753
-0.032911
-0.032054
-0.031191
-0.030326
-0.02946
-0.028595
-0.027734
-0.026876
-0.026024
-0.025177
-0.024336
-0.023502
-0.022673
-0.021849
-0.021029
-0.020213
-0.019398
-0.018583
-0.017766
-0.016945
-0.016116
-0.015278
-0.014426
-0.013557
-0.012668
-0.011754
-0.01081
-0.0098291
-0.008783
-0.007655
-0.0064221
-0.0050526
-0.0035061
-0.0017339
0.00032141
0.002726
0.0055543
0.0088897
0.012824
0.017457
0.022897
0.029189
0.036452
0.04482
0.054387
0.065201
0.077267
0.090547
0.10496
0.12038
0.13665
0.15354
0.17081
0.18816
0.20529
0.22188
0.23742
0.2515
0.26373
0.27382
0.28152
0.28663
0.28904
0.28867
0.28553
0.27967
0.27119
0.26035
0.24754
0.23316
0.21759
0.2012
0.18432
0.1673
0.15044
0.13406
0.11842
0.1038
0.090358
0.07815
0.067234
0.057629
0.049317
0.04224
0.036303
0.031374
0.027284
0.023825
0.02075
0.01781
0.014518
0.0096238
0.0020232
-0.0091336
-0.024441
-0.044236
-0.068585
-0.095512
-0.1203
-0.13779
-0.14252
-0.12874
-0.090389
-0.021743
0.080275
0.21685
0.3836
0.57024
0.76055
0.93396
1.0654
1.1337
1.1282
1.0492
0.90732
0.72184
0.51793
0.31728
0.13638
-0.013537
-0.12636
-0.20099
-0.24
-0.24789
-0.231
-0.19751
-0.15583
-0.11284
-0.073703
-0.041478
-0.017144
0.00014044
0.011757
0.019381
0.024422
0.027984
0.030867
0.033565
0.036273
0.039142
0.042278
0.045732
0.049554
0.053792
0.05849
0.063689
0.069428
0.075744
0.082664
0.0902
0.098399
0.10731
0.11695
0.12735
0.13851
0.15044
0.16311
0.17651
0.19059
0.20531
0.2206
0.23639
0.25261
0.26915
0.28591
0.30278
0.31965
0.33642
0.35292
0.36897
0.3844
0.39905
0.41277
0.42542
0.43688
0.44704
0.4558
0.46306
0.46874
0.47278
0.47511
0.4757
0.4745
0.47142
0.4664
0.45958
0.45112
0.44118
0.42989
0.4174
0.40386
0.38941
0.37418
0.35829
0.34189
0.32509
0.30802
0.2908
0.27353
0.25634
0.23933
0.22261
0.20629
0.19045
0.17519
0.16062
0.14681
0.13385
0.1218
0.11061
0.10025
0.090715
0.081974
0.074008
0.066791
0.060293
0.054484
0.04933
0.044793
0.040835
0.037413
0.034482
0.031996
0.029903
0.028152
0.026713
0.025559
0.024656
0.023975
0.023488
0.023169
0.022995
0.022947
0.023004
0.023152
0.023377
0.023687
0.024123
0.02465
0.025237
0.025855
0.026483
0.027105
0.027711
0.028296
0.028863
0.029418
0.029975
0.030536
0.031092
0.031644
0.032191
0.032734
0.033273
0.033807
0.034337
0.034863
0.035385
0.035902
0.036415
0.036923
0.037428
0.037928
0.038424
0.038917
0.03941
0.039899
0.040383
0.040861
0.041333
0.041801
0.042265
0.042729
0.043196
0.04367
0.044156
0.04466
0.045189
0.045751
0.046355
0.047017
0.047761
0.048617
0.04962
0.050815
0.052254
0.053993
0.056101
0.058649
0.061718
0.065396
0.069778
0.074967
0.081071
0.088208
0.096464
0.10587
0.11649
0.12835
0.14139
0.15556
0.17072
0.18669
0.20326
0.22016
0.23706
0.25362
0.26943
0.2842
0.29748
0.30886
0.31801
0.32467
0.32866
0.32986
0.32823
0.32383
0.31675
0.30719
0.29541
0.28163
0.26625
0.24973
0.23251
0.21498
0.19749
0.18035
0.16381
0.1481
0.13341
0.11985
0.10754
0.096528
0.086814
0.078353
0.071087
0.064943
0.059797
0.055464
0.05171
0.048242
0.044834
0.040686
0.034505
0.025266
0.012224
-0.0050888
-0.026862
-0.052829
-0.080041
-0.10354
-0.11799
-0.11773
-0.096754
-0.04879
0.030508
0.14447
0.29216
0.46691
0.65635
0.84297
1.0035
1.1126
1.1542
1.1222
1.0205
0.86169
0.66809
0.4631
0.2657
0.090463
-0.052503
-0.15825
-0.22705
-0.26147
-0.266
-0.24709
-0.21292
-0.17131
-0.12885
-0.090345
-0.05869
-0.034808
-0.017845
-0.0064735
0.00089237
0.0056271
0.0088207
0.011279
0.013522
0.015787
0.018155
0.020775
0.0237
0.026975
0.030646
0.034754
0.039342
0.044446
0.050104
0.056349
0.063192
0.070663
0.078808
0.087661
0.097248
0.10758
0.11866
0.13049
0.14303
0.15627
0.17016
0.18465
0.19967
0.21516
0.23104
0.24719
0.26353
0.27992
0.29627
0.31247
0.32838
0.34381
0.35861
0.37261
0.38568
0.39769
0.40851
0.41803
0.42617
0.43283
0.43793
0.44141
0.44323
0.44332
0.44167
0.43818
0.43278
0.42563
0.41686
0.40661
0.39504
0.38228
0.36845
0.3537
0.33816
0.32195
0.30519
0.288
0.27051
0.25283
0.23508
0.21736
0.19977
0.18243
0.16544
0.1489
0.13289
0.11752
0.10288
0.089049
0.076109
0.064041
0.052814
0.042405
0.032788
0.023937
0.015825
0.0084232
0.0017017
-0.0043699
-0.0098234
-0.014692
-0.019008
-0.022809
-0.026129
-0.029006
-0.031478
-0.033584
-0.035366
-0.036864
-0.038121
-0.03918
-0.04008
-0.040829
-0.041441
-0.041926
-0.042299
-0.042569
-0.042749
-0.042849
-0.04288
-0.042851
-0.042773
-0.042654
-0.042504
-0.04233
-0.042141
-0.041943
-0.041745
-0.041552
-0.041371
-0.041197
-0.041024
-0.040855
-0.040687
-0.040523
-0.040361
-0.040202
-0.040046
-0.039892
-0.039742
-0.039594
-0.039449
-0.039307
-0.039167
-0.03903
-0.038895
-0.038762
-0.038631
-0.038501
-0.038373
-0.038245
-0.038118
-0.037991
-0.037864
-0.037736
-0.0376
-0.037449
-0.03729
-0.037125
-0.036951
-0.036762
-0.036547
-0.036288
-0.035966
-0.035556
-0.035027
-0.034345
-0.033472
-0.032364
-0.030973
-0.029293
-0.027242
-0.024675
-0.021463
-0.017494
-0.012668
-0.0069008
-0.00012452
0.0077149
0.016656
0.026723
0.037924
0.050254
0.06369
0.078195
0.093628
0.10973
0.12624
0.14285
0.15925
0.17513
0.19013
0.20387
0.21599
0.22611
0.23398
0.23935
0.24206
0.242
0.23917
0.23363
0.2255
0.215
0.2024
0.18795
0.17208
0.15521
0.13774
0.12002
0.10236
0.085051
0.068349
0.052468
0.037591
0.023867
0.011397
-2.7139e-07
-0.010236
-0.019159
-0.026713
-0.032939
-0.03797
-0.042039
-0.045471
-0.048689
-0.052209
-0.056646
-0.062708
-0.071198
-0.082993
-0.099151
-0.12022
-0.1454
-0.17249
-0.19792
-0.21682
-0.2236
-0.21129
-0.17404
-0.10752
-0.0089511
0.12294
0.28707
0.47143
0.65949
0.83323
0.97309
1.058
1.0688
1.006
0.88047
0.70741
0.50606
0.29982
0.10978
-0.053306
-0.18237
-0.27404
-0.32865
-0.35017
-0.344
-0.31817
-0.28094
-0.23913
-0.19816
-0.16204
-0.13335
-0.11256
-0.098066
-0.088306
-0.081922
-0.077774
-0.07494
-0.072712
-0.070605
-0.068389
-0.065989
-0.063336
-0.06037
-0.057037
-0.053284
-0.049069
-0.044351
-0.039097
-0.033276
-0.026863
-0.019819
-0.012107
-0.0037011
0.0054193
0.015267
0.025847
0.037157
0.049187
0.061921
0.075334
0.089384
0.10402
0.11917
0.13477
0.15072
0.16694
0.18331
0.19973
0.21606
0.23216
0.24792
0.2632
0.27783
0.29165
0.30451
0.31628
0.32684
0.33609
0.34391
0.35023
0.35498
0.35808
0.35951
0.3592
0.35714
0.3533
0.34775
0.34058
0.33187
0.32173
0.31026
0.29756
0.28374
0.26893
0.25325
0.23682
0.21979
0.20229
0.18446
0.16647
0.14846
0.1306
0.11304
0.095877
0.079173
0.06301
0.047456
0.03257
0.0184
0.0049894
-0.0076325
-0.019443
-0.03043
-0.04059
-0.049928
-0.05846
-0.06621
-0.07321
-0.079505
-0.085146
-0.090191
-0.094658
-0.098583
-0.10201
-0.10498
-0.10754
-0.10972
-0.11156
-0.11309
-0.11436
-0.11538
-0.11619
-0.1168
-0.11726
-0.11757
-0.11775
-0.11783
-0.11782
-0.11773
-0.11756
-0.11733
-0.11703
-0.11668
-0.11629
-0.11586
-0.11541
-0.11493
-0.11443
-0.11392
-0.1134
-0.11288
-0.11236
-0.11184
-0.11133
-0.11082
-0.11032
-0.10983
-0.10934
-0.10886
-0.10839
-0.10792
-0.10745
-0.10698
-0.1065
-0.10601
-0.10552
-0.10502
-0.10452
-0.10402
-0.10353
-0.10304
-0.10255
-0.10207
-0.10159
-0.10111
-0.10063
-0.10014
-0.099641
-0.099128
-0.098594
-0.098033
-0.097438
-0.096801
-0.096115
-0.095374
-0.094647
-0.093888
-0.093005
-0.091911
-0.090524
-0.088762
-0.086547
-0.083804
-0.080462
-0.076451
-0.071706
-0.066163
-0.059762
-0.052448
-0.044165
-0.034863
-0.024493
-0.013012
-0.00037603
0.013453
0.028468
0.044425
0.061036
0.07801
0.095046
0.11184
0.12806
0.14341
0.15754
0.17011
0.18079
0.18921
0.19505
0.19819
0.19859
0.19626
0.19129
0.1838
0.17396
0.16201
0.14821
0.13292
0.11652
0.099443
0.082132
0.06486
0.04794
0.031643
0.016195
0.0017763
-0.011481
-0.023489
-0.03421
-0.043648
-0.051887
-0.059164
-0.065395
-0.070543
-0.074702
-0.078092
-0.081064
-0.084094
-0.087791
-0.09289
-0.10025
-0.11088
-0.12588
-0.14623
-0.17089
-0.19723
-0.22178
-0.24021
-0.24733
-0.23709
-0.20295
-0.14094
-0.045683
0.084365
0.24551
0.42884
0.62022
0.80029
0.94667
1.0378
1.0586
1.0049
0.88361
0.7115
0.51145
0.30698
0.11664
-0.046423
-0.17433
-0.26401
-0.31708
-0.3373
-0.33011
-0.3026
-0.26343
-0.22048
-0.17927
-0.14363
-0.1156
-0.095413
-0.081547
-0.072271
-0.066215
-0.062156
-0.059148
-0.056524
-0.053894
-0.051144
-0.048204
-0.044961
-0.041369
-0.037383
-0.032961
-0.02806
-0.022641
-0.016666
-0.010098
-0.0029037
0.0049337
0.013451
0.022685
0.032659
0.043389
0.054878
0.067118
0.08009
0.093764
0.1081
0.12305
0.13854
0.15451
0.17087
0.18753
0.20439
0.22136
0.23828
0.25499
0.27133
0.28716
0.30232
0.31668
0.33011
0.34249
0.35368
0.36357
0.37206
0.37904
0.38441
0.38808
0.38996
0.39005
0.38837
0.38497
0.37989
0.37321
0.36498
0.3553
0.34425
0.33193
0.31846
0.30397
0.28857
0.27242
0.25566
0.23846
0.221
0.20345
0.186
0.16875
0.15179
0.13523
0.11915
0.10365
0.088797
0.074649
0.061259
0.048665
0.036893
0.02596
0.01587
0.0066144
-0.0018238
-0.009475
-0.016381
-0.022568
-0.028059
-0.032901
-0.03714
-0.040822
-0.04399
-0.046686
-0.048949
-0.050819
-0.052331
-0.053521
-0.054423
-0.055068
-0.055486
-0.055706
-0.055755
-0.055658
-0.055421
-0.055015
-0.054464
-0.053794
-0.053028
-0.052189
-0.051294
-0.050362
-0.049407
-0.048442
-0.047478
-0.046522
-0.045582
-0.04466
-0.04376
-0.04288
-0.042018
-0.041169
-0.040326
-0.039481
-0.038621
-0.037749
-0.036874
-0.035999
-0.035124
-0.03425
-0.03338
-0.032515
-0.031653
-0.030797
-0.029946
-0.029101
-0.02826
-0.027423
-0.02659
-0.025759
-0.024929
-0.024099
-0.023266
-0.022429
-0.021584
-0.020731
-0.019865
-0.018984
-0.018085
-0.017164
-0.016216
-0.015224
-0.014168
-0.013035
-0.011802
-0.010437
-0.0089006
-0.0071452
-0.0051138
-0.0027411
4.6458e-05
0.0033311
0.0072036
0.011763
0.017096
0.023252
0.030387
0.038628
0.048063
0.058739
0.07066
0.083793
0.098059
0.11334
0.12949
0.14629
0.16352
0.18088
0.19814
0.21488
0.23063
0.24497
0.25754
0.26804
0.27621
0.28186
0.28485
0.28509
0.28255
0.27725
0.26911
0.25842
0.24566
0.2313
0.21577
0.19946
0.18273
0.1659
0.14927
0.13309
0.11759
0.10295
0.089326
0.076839
0.065574
0.055582
0.04688
0.039443
0.033163
0.027943
0.023647
0.020085
0.017009
0.014116
0.010856
0.0064212
-8.7218e-05
-0.0096571
-0.023363
-0.042006
-0.065121
-0.090946
-0.11643
-0.13725
-0.14778
-0.14142
-0.11253
-0.054213
0.03763
0.16342
0.31991
0.5002
0.69466
0.87837
1.0247
1.1145
1.1365
1.0866
0.96876
0.79765
0.59885
0.39491
0.20368
0.038274
-0.092908
-0.18616
-0.2426
-0.26593
-0.26138
-0.23583
-0.19762
-0.1546
-0.11264
-0.075889
-0.046568
-0.02502
-0.0099163
0.00020461
0.006873
0.011373
0.014693
0.017527
0.020272
0.023062
0.02605
0.029314
0.032906
0.036872
0.041258
0.046106
0.051455
0.057344
0.063806
0.070849
0.078505
0.086824
0.095846
0.1056
0.1161
0.12737
0.13938
0.15214
0.1656
0.17975
0.19452
0.20986
0.2257
0.24195
0.25854
0.27535
0.29226
0.30917
0.32595
0.34251
0.35867
0.37426
0.3891
0.40305
0.41597
0.42773
0.43821
0.44732
0.45496
0.46105
0.46553
0.46834
0.46944
0.46881
0.46642
0.46219
0.45608
0.44826
0.43887
0.42808
0.41603
0.40287
0.38874
0.37379
0.35814
0.34194
0.32529
0.30833
0.29118
0.27395
0.25675
0.23968
0.22286
0.20637
0.19032
0.1748
0.15988
0.14566
0.13221
0.11961
0.10791
0.097044
0.087008
0.077776
0.069325
0.06163
0.054664
0.048397
0.042798
0.037833
0.033467
0.029661
0.026377
0.023572
0.021201
0.019219
0.017577
0.016225
0.015116
0.014238
0.013575
0.013116
0.012846
0.012749
0.01281
0.013014
0.013342
0.013778
0.014303
0.014899
0.015544
0.016221
0.016906
0.01758
0.018221
0.018846
0.019467
0.020083
0.020695
0.021302
0.021905
0.022503
0.023097
0.023686
0.024271
0.024852
0.025428
0.025999
0.026567
0.027129
0.027688
0.028242
0.028792
0.029339
0.029882
0.03042
0.030954
0.031481
0.032004
0.032522
0.033035
0.033545
0.034053
0.03456
0.035068
0.035578
0.036093
0.036615
0.037147
0.037712
0.038312
0.038949
0.03963
0.04037
0.041191
0.042126
0.043211
0.044495
0.046031
0.04788
0.050113
0.052808
0.056049
0.059931
0.064553
0.070007
0.07634
0.083691
0.092176
0.10187
0.1128
0.12495
0.13828
0.15269
0.16803
0.18414
0.20078
0.2177
0.23459
0.25118
0.2671
0.28187
0.29507
0.30635
0.31541
0.32203
0.32604
0.32734
0.3259
0.32172
0.31491
0.30561
0.2939
0.28012
0.26478
0.24832
0.23117
0.21369
0.19622
0.17906
0.16247
0.14667
0.13182
0.11808
0.10553
0.094236
0.084218
0.075454
0.067883
0.061381
0.055838
0.051226
0.047384
0.044004
0.04064
0.036696
0.031438
0.024149
0.013892
-0.0010297
-0.021154
-0.045722
-0.072673
-0.098647
-0.11899
-0.12817
-0.12075
-0.088551
-0.025775
0.070257
0.19912
0.35728
0.53811
0.73206
0.91406
1.0573
1.1432
1.161
1.1081
0.99001
0.82027
0.62158
0.41638
0.22242
0.052812
-0.084029
-0.18412
-0.24784
-0.27836
-0.28035
-0.25998
-0.22487
-0.18309
-0.14068
-0.10215
-0.070286
-0.046122
-0.028973
-0.017257
-0.009594
-0.0046277
-0.001275
0.0012751
0.0035617
0.0058515
0.0082277
0.010838
0.013735
0.016967
0.020578
0.024609
0.029101
0.03409
0.039611
0.045698
0.052353
0.059611
0.067519
0.076115
0.085425
0.095467
0.10625
0.11776
0.13
0.14293
0.15653
0.17074
0.18551
0.20079
0.21648
0.23251
0.24878
0.26518
0.2816
0.29791
0.31404
0.32984
0.34513
0.35976
0.37358
0.38645
0.39824
0.40884
0.41814
0.42606
0.43249
0.43739
0.44069
0.44234
0.44231
0.44056
0.43709
0.43175
0.42464
0.41591
0.40571
0.39417
0.38144
0.36765
0.35294
0.33744
0.32127
0.30455
0.28741
0.26996
0.25231
0.23458
0.21687
0.19928
0.18192
0.16487
0.14824
0.13211
0.11657
0.1017
0.087587
0.074301
0.061895
0.050339
0.039605
0.029668
0.020499
0.012072
0.0043569
-0.0026748
-0.0090534
-0.01481
-0.019976
-0.024583
-0.028666
-0.032257
-0.035392
-0.038105
-0.040434
-0.042414
-0.044084
-0.045482
-0.046646
-0.047618
-0.048436
-0.049116
-0.049667
-0.0501
-0.050428
-0.05066
-0.050808
-0.050881
-0.050889
-0.050842
-0.050747
-0.050613
-0.050448
-0.050259
-0.050052
-0.049834
-0.049611
-0.049389
-0.049171
-0.048963
-0.04876
-0.048559
-0.048361
-0.048165
-0.047972
-0.047781
-0.047594
-0.04741
-0.047229
-0.047052
-0.046879
-0.046708
-0.046541
-0.046377
-0.046215
-0.046056
-0.045899
-0.045744
-0.045591
-0.045438
-0.045286
-0.045133
-0.04498
-0.044825
-0.044667
-0.044507
-0.044342
-0.044159
-0.043957
-0.043738
-0.0435
-0.043231
-0.042919
-0.042543
-0.042077
-0.041491
-0.040748
-0.039806
-0.038619
-0.037133
-0.035292
-0.033079
-0.030388
-0.027079
-0.02303
-0.018134
-0.012303
-0.0054635
0.0024385
0.011441
0.021565
0.032814
0.045174
0.058615
0.07309
0.088485
0.10456
0.12105
0.13768
0.15415
0.17013
0.18531
0.19932
0.21179
0.22237
0.23079
0.23681
0.24024
0.24098
0.23898
0.23429
0.22701
0.21732
0.20548
0.19169
0.17634
0.15986
0.14262
0.12499
0.10728
0.089783
0.07276
0.056437
0.041009
0.02664
0.013462
0.0014657
-0.0094595
-0.01915
-0.027514
-0.034547
-0.040327
-0.045021
-0.048882
-0.052247
-0.055541
-0.059274
-0.064041
-0.070525
-0.079491
-0.091828
-0.10874
-0.13049
-0.15606
-0.18315
-0.20817
-0.22652
-0.23241
-0.2192
-0.18146
-0.11507
-0.017199
0.11376
0.27645
0.45941
0.6476
0.824
0.96959
1.0634
1.0856
1.0347
0.91964
0.75406
0.55614
0.34871
0.15404
-0.016086
-0.1535
-0.25403
-0.31755
-0.34707
-0.34769
-0.32731
-0.29324
-0.25209
-0.20977
-0.17143
-0.14065
-0.11728
-0.10032
-0.088688
-0.081211
-0.076622
-0.073565
-0.071088
-0.068918
-0.06682
-0.064607
-0.062142
-0.059333
-0.056137
-0.052557
-0.048567
-0.04411
-0.039144
-0.033629
-0.02753
-0.020814
-0.013454
-0.0054258
0.0032913
0.012714
0.022854
0.033722
0.045323
0.057649
0.070665
0.084332
0.098599
0.11341
0.12869
0.14437
0.16037
0.17659
0.19292
0.20927
0.22551
0.24151
0.25713
0.27224
0.28669
0.30029
0.31291
0.32446
0.33481
0.34384
0.35143
0.3575
0.36197
0.36478
0.36589
0.36528
0.36295
0.35892
0.35322
0.34589
0.33702
0.32668
0.31499
0.30206
0.28803
0.27301
0.25712
0.24052
0.22337
0.20583
0.18805
0.17014
0.15225
0.13449
0.11697
0.099786
0.083042
0.066819
0.051194
0.036237
0.022008
0.0085651
-0.0040637
-0.015882
-0.026898
-0.037121
-0.046564
-0.055245
-0.063181
-0.070397
-0.076916
-0.082769
-0.087986
-0.092602
-0.096655
-0.10019
-0.10324
-0.10586
-0.1081
-0.11001
-0.11164
-0.11302
-0.11415
-0.11506
-0.11576
-0.11627
-0.1166
-0.11678
-0.11682
-0.11673
-0.11653
-0.11624
-0.11588
-0.11545
-0.11497
-0.11447
-0.11395
-0.11343
-0.11293
-0.11245
-0.11197
-0.11149
-0.11101
-0.11052
-0.11004
-0.10956
-0.10908
-0.1086
-0.10812
-0.10763
-0.10715
-0.10667
-0.10618
-0.1057
-0.10521
-0.10473
-0.10424
-0.10376
-0.10327
-0.10278
-0.1023
-0.10181
-0.10132
-0.1008
-0.10023
-0.099635
-0.099032
-0.098436
-0.097857
-0.097303
-0.096775
-0.096272
-0.095788
-0.095313
-0.094832
-0.094326
-0.093774
-0.093147
-0.092416
-0.091545
-0.090494
-0.08922
-0.087676
-0.085809
-0.083563
-0.080878
-0.07769
-0.073945
-0.069565
-0.064392
-0.058291
-0.051155
-0.042907
-0.033497
-0.022906
-0.011142
0.0017562
0.015723
0.030663
0.046452
0.062939
0.080011
0.097309
0.11439
0.13087
0.14635
0.16051
0.17305
0.18369
0.19219
0.19835
0.20201
0.20301
0.20126
0.19669
0.18941
0.17974
0.16802
0.15458
0.13975
0.12384
0.10717
0.090059
0.072815
0.055745
0.039152
0.023336
0.0085749
-0.005039
-0.017447
-0.028604
-0.038496
-0.04714
-0.054584
-0.060907
-0.066219
-0.07066
-0.074403
-0.077648
-0.080574
-0.083869
-0.088416
-0.095059
-0.1046
-0.11779
-0.13535
-0.15791
-0.18418
-0.21054
-0.23281
-0.24625
-0.24564
-0.22523
-0.17879
-0.10236
0.0074464
0.15057
0.32163
0.50991
0.69939
0.86964
0.99829
1.0649
1.0591
0.98057
0.83932
0.65456
0.451
0.24973
0.067129
-0.085138
-0.20014
-0.27759
-0.32008
-0.33164
-0.31787
-0.28581
-0.24404
-0.20118
-0.1616
-0.12809
-0.10208
-0.083641
-0.071449
-0.063255
-0.057809
-0.05408
-0.051245
-0.048711
-0.046113
-0.043319
-0.040324
-0.037014
-0.033343
-0.029268
-0.024748
-0.019742
-0.014212
-0.00812
-0.0014295
0.0058923
0.013851
0.022484
0.031829
0.041913
0.052751
0.064348
0.076697
0.089778
0.10356
0.118
0.13305
0.14865
0.1647
0.18114
0.19785
0.21474
0.23166
0.24851
0.26512
0.2814
0.29721
0.31236
0.3267
0.34006
0.35231
0.36332
0.37299
0.38121
0.38791
0.393
0.39643
0.39816
0.39815
0.3964
0.39285
0.3874
0.38017
0.37133
0.36104
0.34944
0.33668
0.32291
0.30828
0.29291
0.27694
0.26049
0.2437
0.22669
0.20956
0.19244
0.17543
0.15864
0.14216
0.12611
0.11055
0.095597
0.081323
0.06781
0.055136
0.043365
0.032476
0.022439
0.013222
0.0047968
-0.0028689
-0.0098061
-0.016047
-0.021624
-0.026572
-0.030923
-0.034712
-0.037976
-0.04075
-0.04307
-0.044975
-0.046501
-0.047687
-0.048573
-0.049198
-0.049603
-0.049829
-0.049911
-0.049856
-0.049678
-0.049387
-0.048996
-0.048515
-0.047956
-0.047327
-0.04664
-0.045903
-0.045123
-0.04431
-0.04347
-0.04261
-0.041736
-0.040855
-0.03997
-0.039088
-0.038212
-0.037343
-0.036473
-0.035604
-0.034737
-0.03387
-0.033006
-0.032144
-0.031284
-0.030427
-0.029573
-0.028721
-0.027872
-0.027026
-0.026182
-0.02534
-0.0245
-0.023662
-0.022824
-0.021987
-0.021149
-0.02031
-0.01947
-0.018627
-0.01778
-0.016929
-0.016072
-0.015207
-0.014316
-0.013402
-0.012462
-0.011491
-0.010476
-0.0093943
-0.0082208
-0.0069217
-0.0054567
-0.0037791
-0.0018355
0.00043408
0.0030963
0.0062137
0.0098109
0.01404
0.019054
0.024982
0.031928
0.03997
0.04916
0.059525
0.07107
0.083769
0.097575
0.11241
0.12819
0.1448
0.16222
0.17999
0.1976
0.21461
0.23062
0.24526
0.25821
0.2692
0.278
0.28441
0.2883
0.28957
0.28814
0.28402
0.27722
0.26785
0.25621
0.24274
0.22784
0.2119
0.19528
0.17832
0.16134
0.14464
0.12849
0.11316
0.098875
0.085786
0.073933
0.063374
0.054129
0.046174
0.039444
0.033831
0.029186
0.025317
0.021991
0.01893
0.015818
0.012178
0.0068897
-0.0011682
-0.012894
-0.028962
-0.049814
-0.074811
-0.10118
-0.12501
-0.14143
-0.1446
-0.12806
-0.086268
-0.013018
0.094481
0.23508
0.40368
0.59171
0.7854
0.95606
1.0798
1.1406
1.1307
1.0503
0.90746
0.72145
0.51746
0.31649
0.13454
-0.017384
-0.13322
-0.21146
-0.25404
-0.26548
-0.25176
-0.22035
-0.17952
-0.13625
-0.095956
-0.061991
-0.035667
-0.016649
-0.0036388
0.0050544
0.010845
0.01487
0.017983
0.020761
0.023499
0.026327
0.029396
0.032756
0.036457
0.040544
0.04506
0.050048
0.055547
0.061595
0.068226
0.075474
0.083366
0.091912
0.10115
0.1111
0.1218
0.13324
0.14542
0.15833
0.17194
0.18622
0.20111
0.21655
0.23247
0.2488
0.26543
0.28226
0.29917
0.31604
0.33275
0.3492
0.36523
0.38065
0.3953
0.40904
0.42171
0.43321
0.44341
0.45221
0.45952
0.46528
0.46942
0.47189
0.47265
0.47167
0.46896
0.46443
0.45804
0.44993
0.44027
0.42923
0.41694
0.40356
0.38925
0.37413
0.35834
0.34201
0.32528
0.30826
0.29108
0.27383
0.25664
0.23961
0.22284
0.20642
0.19044
0.17499
0.16015
0.146
0.13261
0.12005
0.10837
0.097557
0.087571
0.078389
0.069986
0.062335
0.055406
0.04917
0.043594
0.038644
0.034286
0.030482
0.027194
0.024382
0.022004
0.020017
0.018375
0.017032
0.01594
0.015067
0.014399
0.013921
0.01362
0.013482
0.013492
0.013636
0.013898
0.014264
0.014718
0.015245
0.015829
0.016453
0.017103
0.017761
0.018411
0.019037
0.019644
0.020247
0.020845
0.021439
0.022029
0.022613
0.023194
0.02377
0.024341
0.024908
0.025471
0.026029
0.026582
0.027132
0.027677
0.028217
0.028753
0.029285
0.029812
0.030337
0.030859
0.031376
0.031888
0.032394
0.032895
0.033391
0.033883
0.034374
0.034864
0.035356
0.035854
0.036359
0.036877
0.03741
0.037969
0.038572
0.039226
0.039943
0.040741
0.04165
0.042703
0.043944
0.045424
0.047203
0.049346
0.051929
0.055035
0.058754
0.063185
0.068433
0.074588
0.081702
0.089899
0.099271
0.10987
0.12169
0.1347
0.14882
0.16392
0.17983
0.19635
0.21322
0.23014
0.24678
0.26289
0.278
0.29168
0.30355
0.31328
0.32064
0.32543
0.32753
0.32689
0.32351
0.31747
0.3089
0.29797
0.28485
0.26999
0.25387
0.23691
0.2195
0.20199
0.18468
0.16785
0.15172
0.13648
0.12229
0.10926
0.09747
0.086944
0.077684
0.069643
0.062736
0.056885
0.05198
0.047841
0.044216
0.040786
0.037201
0.032669
0.026111
0.01658
0.0032675
-0.0145
-0.03716
-0.063388
-0.090001
-0.11292
-0.12721
-0.12706
-0.10594
-0.058704
0.020348
0.13376
0.27975
0.45225
0.64115
0.83293
0.99917
1.1155
1.1664
1.1454
1.0548
0.90593
0.71804
0.51327
0.31168
0.12888
-0.024104
-0.14081
-0.21933
-0.26232
-0.27426
-0.26102
-0.23132
-0.19254
-0.15078
-0.11083
-0.07613
-0.04885
-0.029299
-0.01585
-0.0068742
-0.00099405
0.0029134
0.0057176
0.0080344
0.010228
0.012527
0.015037
0.017809
0.020893
0.024337
0.028187
0.032484
0.037269
0.042581
0.048453
0.054919
0.062011
0.069755
0.078177
0.087284
0.097096
0.10763
0.11888
0.13085
0.14352
0.15685
0.17082
0.18537
0.20044
0.21597
0.23186
0.24804
0.26439
0.2808
0.29716
0.31332
0.32915
0.34449
0.35919
0.37318
0.38629
0.39837
0.40927
0.41887
0.42707
0.43376
0.43889
0.44239
0.44422
0.44435
0.44277
0.4395
0.43456
0.42797
0.41982
0.41013
0.39894
0.38641
0.3727
0.35797
0.34236
0.32603
0.30912
0.29175
0.27407
0.25619
0.23824
0.22033
0.20257
0.18507
0.16793
0.15124
0.13509
0.11957
0.10475
0.090712
0.077493
0.065089
0.05349
0.042684
0.032659
0.023397
0.014878
0.0070834
-1.2772e-05
-0.0064363
-0.012216
-0.017383
-0.021972
-0.026018
-0.029561
-0.032642
-0.035303
-0.037593
-0.039558
-0.041251
-0.042717
-0.043972
-0.045029
-0.045903
-0.046606
-0.047153
-0.047558
-0.047834
-0.047996
-0.048057
-0.048033
-0.047938
-0.047786
-0.047592
-0.047371
-0.047138
-0.046907
-0.046695
-0.046504
-0.046316
-0.04613
-0.045947
-0.045767
-0.045589
-0.045414
-0.045242
-0.045072
-0.044904
-0.044739
-0.044577
-0.044417
-0.044259
-0.044103
-0.04395
-0.0438
-0.043651
-0.043505
-0.043361
-0.043219
-0.043078
-0.042929
-0.042774
-0.042619
-0.042468
-0.042325
-0.042191
-0.042064
-0.041944
-0.041827
-0.041708
-0.041579
-0.041433
-0.041259
-0.041047
-0.040783
-0.040452
-0.040038
-0.039523
-0.038888
-0.038192
-0.037411
-0.036408
-0.035059
-0.03325
-0.030875
-0.027839
-0.024058
-0.019456
-0.013968
-0.0075401
-0.00012638
0.0083078
0.017787
0.028327
0.039933
0.052598
0.066309
0.081041
0.096738
0.11314
0.12986
0.14655
0.16284
0.17841
0.19292
0.20609
0.2176
0.2272
0.2346
0.23957
0.24187
0.24131
0.2379
0.23184
0.22335
0.21266
0.20002
0.18571
0.17003
0.15327
0.13579
0.11793
0.10007
0.082591
0.065848
0.049977
0.03512
0.02139
0.0088661
-0.0024059
-0.012414
-0.021179
-0.028756
-0.035234
-0.040735
-0.045279
-0.046876
-0.04688
-0.047593
-0.050794
-0.057736
-0.069146
-0.08523
-0.10567
-0.12962
-0.15571
-0.18205
-0.20622
-0.22528
-0.23568
-0.23096
-0.20334
-0.1473
-0.059705
0.060171
0.21068
0.38838
0.58154
0.7661
0.92086
1.0285
1.0755
1.0525
0.95591
0.80155
0.61174
0.40729
0.20744
0.02969
-0.11529
-0.22394
-0.29547
-0.33177
-0.33737
-0.31946
-0.28578
-0.24441
-0.2021
-0.16371
-0.13212
-0.10831
-0.091427
-0.080105
-0.072831
-0.068257
-0.06529
-0.063091
-0.061074
-0.058907
-0.056512
-0.053975
-0.051137
-0.047935
-0.044328
-0.040276
-0.035738
-0.030677
-0.025055
-0.018838
-0.011991
-0.0044821
0.0037022
0.012591
0.02221
0.032574
0.043687
0.055541
0.068117
0.081385
0.095305
0.10982
0.12488
0.14039
0.15628
0.17245
0.18879
0.2052
0.22158
0.23775
0.25356
0.26885
0.28346
0.29728
0.31015
0.32196
0.33259
0.34193
0.34987
0.35631
0.36117
0.36436
0.36581
0.36545
0.36333
0.35948
0.35397
0.34685
0.33821
0.32813
0.3167
0.30401
0.29018
0.27532
0.25956
0.24304
0.2259
0.20828
0.19036
0.1723
0.15427
0.13646
0.11894
0.10179
0.085103
0.068971
0.053462
0.038641
0.024557
0.011252
-0.0012452
-0.012915
-0.023748
-0.033748
-0.042929
-0.051313
-0.058936
-0.065842
-0.072052
-0.077596
-0.082521
-0.086874
-0.090699
-0.094039
-0.096934
-0.099423
-0.10154
-0.10333
-0.10481
-0.10603
-0.10701
-0.10778
-0.10836
-0.10878
-0.10906
-0.10923
-0.10928
-0.10922
-0.10905
-0.1088
-0.10847
-0.10808
-0.10764
-0.10717
-0.10668
-0.10616
-0.10564
-0.10512
-0.10461
-0.1041
-0.1036
-0.10311
-0.10264
-0.10218
-0.10173
-0.10129
-0.10085
-0.10041
-0.099953
-0.099477
-0.098969
-0.098439
-0.097897
-0.097351
-0.096809
-0.096277
-0.09576
-0.095261
-0.094783
-0.094327
-0.093893
-0.093479
-0.093084
-0.092703
-0.092331
-0.091963
-0.091591
-0.091207
-0.0908
-0.09036
-0.089874
-0.089329
-0.088711
-0.088003
-0.087187
-0.086247
-0.085162
-0.083912
-0.082474
-0.080807
-0.078816
-0.076397
-0.073454
-0.069892
-0.065622
-0.06056
-0.054625
-0.047738
-0.039829
-0.030829
-0.020672
-0.0093
0.0033157
0.01709
0.031903
0.047601
0.063991
0.080842
0.097888
0.11482
0.1313
0.14695
0.16134
0.17415
0.18502
0.19365
0.19978
0.20324
0.20393
0.20184
0.19701
0.18958
0.17976
0.1678
0.15397
0.13868
0.12237
0.10542
0.088179
0.070983
0.05412
0.037849
0.022398
0.0079613
-0.0053005
-0.017347
-0.028187
-0.037722
-0.04592
-0.052813
-0.058498
-0.063137
-0.066956
-0.070248
-0.073367
-0.076737
-0.080842
-0.086179
-0.093575
-0.10493
-0.12129
-0.14258
-0.1676
-0.19405
-0.21851
-0.23686
-0.24211
-0.22709
-0.18629
-0.11581
-0.013384
0.12161
0.28828
0.47639
0.66558
0.83588
0.96825
1.0445
1.0476
0.97238
0.83492
0.65442
0.45155
0.24844
0.066013
-0.085442
-0.20049
-0.27718
-0.3171
-0.32534
-0.30844
-0.27522
-0.23409
-0.19172
-0.15294
-0.1208
-0.096576
-0.079688
-0.06832
-0.060844
-0.055906
-0.052437
-0.049644
-0.047014
-0.044316
-0.0415
-0.038407
-0.034981
-0.031175
-0.026945
-0.022247
-0.017041
-0.011287
-0.0049468
0.0020148
0.0096323
0.017938
0.026954
0.03669
0.04717
0.058404
0.070393
0.083124
0.096574
0.11071
0.12548
0.14082
0.15668
0.17295
0.18956
0.20639
0.22333
0.24025
0.257
0.27344
0.2894
0.3047
0.31924
0.33289
0.34546
0.35682
0.36683
0.37536
0.38233
0.38766
0.39128
0.39316
0.39328
0.39162
0.38822
0.38309
0.3763
0.3679
0.35792
0.34649
0.33379
0.31997
0.30521
0.28966
0.27347
0.25678
0.23974
0.22249
0.20515
0.18784
0.1707
0.15383
0.13735
0.12135
0.10594
0.091219
0.077265
0.064136
0.051838
0.040369
0.029725
0.019896
0.01087
0.0026323
-0.0048376
-0.011563
-0.01757
-0.02289
-0.027556
-0.031607
-0.035084
-0.038032
-0.0405
-0.042541
-0.044209
-0.045565
-0.046652
-0.047486
-0.048081
-0.048453
-0.048618
-0.048591
-0.04839
-0.048032
-0.047535
-0.046918
-0.0462
-0.045401
-0.044541
-0.043642
-0.042724
-0.041811
-0.040924
-0.040058
-0.039194
-0.038331
-0.037469
-0.036609
-0.03575
-0.034893
-0.034037
-0.033182
-0.032329
-0.031478
-0.030628
-0.029779
-0.028932
-0.028087
-0.027243
-0.0264
-0.025559
-0.024719
-0.023881
-0.023039
-0.022196
-0.021355
-0.020517
-0.019683
-0.018855
-0.01803
-0.017208
-0.016387
-0.015564
-0.014736
-0.013898
-0.013045
-0.012172
-0.011271
-0.010335
-0.0093566
-0.0083343
-0.0072613
-0.0060922
-0.0047766
-0.0032599
-0.0014837
0.00061418
0.0031002
0.0060445
0.0095213
0.013609
0.018389
0.023947
0.030374
0.037764
0.046214
0.055825
0.066705
0.078959
0.092513
0.10719
0.1228
0.13914
0.15596
0.17301
0.19002
0.20671
0.22275
0.23781
0.25156
0.2636
0.27356
0.28102
0.2856
0.28729
0.28614
0.28225
0.27574
0.26681
0.25568
0.24262
0.22795
0.21201
0.19522
0.17803
0.16091
0.14419
0.12808
0.11283
0.098616
0.085568
0.073786
0.063322
0.054184
0.046338
0.039705
0.034163
0.029534
0.025677
0.022454
0.019542
0.016429
0.012415
0.0066106
-0.0020627
-0.014763
-0.032204
-0.054437
-0.080076
-0.10623
-0.12849
-0.1411
-0.138
-0.11183
-0.056794
0.030567
0.15144
0.30474
0.48577
0.67694
0.85733
1.0064
1.104
1.1306
1.0792
0.96188
0.79473
0.59688
0.39046
0.19874
0.034324
-0.096603
-0.19076
-0.24786
-0.27061
-0.2647
-0.23861
-0.20022
-0.15705
-0.11519
-0.078735
-0.049797
-0.028496
-0.013574
-0.0036031
0.0029552
0.0073626
0.010604
0.013389
0.016148
0.019035
0.022049
0.025347
0.02898
0.032994
0.03743
0.04233
0.047733
0.053679
0.060202
0.067337
0.075095
0.083514
0.092634
0.10248
0.11308
0.12444
0.13654
0.14937
0.16292
0.17713
0.19197
0.20737
0.22326
0.23956
0.25617
0.273
0.28992
0.30686
0.32369
0.34023
0.35631
0.37176
0.38645
0.40022
0.41295
0.42451
0.4348
0.44371
0.45115
0.45703
0.46129
0.46386
0.46469
0.46374
0.46086
0.45613
0.44969
0.44166
0.43216
0.42133
0.40928
0.39615
0.38206
0.36713
0.35148
0.33525
0.31855
0.3015
0.28423
0.26686
0.2495
0.23229
0.21533
0.19875
0.18266
0.16719
0.15245
0.13855
0.12545
0.11316
0.10169
0.091018
0.081157
0.072094
0.063815
0.0563
0.049526
0.043463
0.038077
0.033329
0.029175
0.025565
0.022446
0.019764
0.017495
0.0156
0.014041
0.012783
0.011793
0.011039
0.010493
0.010128
0.0099207
0.0098491
0.0098936
0.010037
0.010264
0.010562
0.010921
0.011337
0.011808
0.012327
0.012885
0.013474
0.014087
0.014717
0.015358
0.016006
0.016655
0.017302
0.017944
0.018577
0.019201
0.019814
0.020416
0.021007
0.021587
0.022158
0.022722
0.023282
0.023842
0.024404
0.024964
0.025519
0.02607
0.026616
0.027157
0.027692
0.028221
0.028746
0.029268
0.029786
0.030302
0.030818
0.031336
0.031858
0.032385
0.03292
0.033472
0.034061
0.034687
0.035352
0.036068
0.036852
0.037732
0.038741
0.039922
0.041325
0.043007
0.045035
0.047482
0.050429
0.053966
0.058189
0.063204
0.069106
0.075939
0.083832
0.092891
0.10317
0.1147
0.12743
0.14131
0.15621
0.17198
0.18841
0.20526
0.22222
0.23898
0.25522
0.27059
0.28462
0.2969
0.30709
0.31493
0.32021
0.3228
0.32261
0.31967
0.31403
0.30582
0.29525
0.28246
0.26786
0.25191
0.23507
0.21773
0.20023
0.18291
0.16604
0.14985
0.13455
0.1203
0.1072
0.095351
0.084776
0.07548
0.067417
0.060507
0.054668
0.049773
0.045636
0.042019
0.03864
0.035056
0.03041
0.023793
0.014285
0.00095945
-0.017107
-0.04004
-0.066144
-0.092517
-0.11512
-0.12877
-0.12717
-0.10422
-0.053868
0.029151
0.14633
0.29536
0.47016
0.66197
0.85085
1.0088
1.1148
1.1558
1.1259
1.027
0.86949
0.67652
0.47156
0.2736
0.097122
-0.047906
-0.1561
-0.22717
-0.26385
-0.27054
-0.25337
-0.22012
-0.17893
-0.1363
-0.097197
-0.064676
-0.039901
-0.022195
-0.010205
-0.0023984
0.0026287
0.0059949
0.0085348
0.010799
0.013056
0.015401
0.017986
0.020864
0.024082
0.027686
0.031719
0.036221
0.041231
0.046785
0.052915
0.059634
0.066966
0.074961
0.083655
0.093074
0.10324
0.11414
0.12579
0.13817
0.15124
0.16497
0.17932
0.19421
0.20959
0.22538
0.24147
0.25778
0.27418
0.29056
0.3068
0.32281
0.33841
0.35344
0.36773
0.38114
0.39353
0.40478
0.41477
0.4234
0.43059
0.43625
0.44032
0.44274
0.44348
0.44249
0.43977
0.43519
0.42877
0.42066
0.411
0.39994
0.38763
0.37419
0.35978
0.34452
0.32854
0.31197
0.29493
0.27754
0.25992
0.24218
0.22443
0.20678
0.18934
0.17219
0.15544
0.13919
0.12352
0.10852
0.094277
0.080868
0.068349
0.056688
0.045858
0.035834
0.026588
0.018092
0.010319
0.0032388
-0.0031794
-0.0089665
-0.014155
-0.018777
-0.022868
-0.026462
-0.029594
-0.032302
-0.034622
-0.036594
-0.038256
-0.039648
-0.040812
-0.04179
-0.042617
-0.043302
-0.043857
-0.044295
-0.044625
-0.044861
-0.045012
-0.045088
-0.045101
-0.045058
-0.04497
-0.044844
-0.044688
-0.044511
-0.044318
-0.044118
-0.043915
-0.043717
-0.043527
-0.043346
-0.043167
-0.04299
-0.042816
-0.042644
-0.042474
-0.042308
-0.042145
-0.041985
-0.041828
-0.041675
-0.041524
-0.041376
-0.041231
-0.041089
-0.040949
-0.040812
-0.040676
-0.040541
-0.040408
-0.040275
-0.040142
-0.040009
-0.039874
-0.039738
-0.0396
-0.039455
-0.039291
-0.039113
-0.038922
-0.038713
-0.038477
-0.038199
-0.037859
-0.037432
-0.036888
-0.03619
-0.035299
-0.034166
-0.032742
-0.03098
-0.028855
-0.026238
-0.022992
-0.018998
-0.014153
-0.0083698
-0.001576
0.0062835
0.015248
0.025342
0.036573
0.048932
0.062396
0.076921
0.092356
0.10846
0.12495
0.14157
0.15799
0.17389
0.18893
0.20274
0.21492
0.22515
0.23315
0.23867
0.24155
0.24168
0.23905
0.23371
0.22579
0.2155
0.20306
0.18876
0.17301
0.15625
0.13884
0.12115
0.10348
0.086126
0.069336
0.05333
0.038297
0.024392
0.011734
0.0001732
-0.010244
-0.019364
-0.027125
-0.033558
-0.038784
-0.043015
-0.046558
-0.049808
-0.053253
-0.057473
-0.063138
-0.07101
-0.081926
-0.096971
-0.11693
-0.1413
-0.1682
-0.19444
-0.2155
-0.2261
-0.2194
-0.18934
-0.13127
-0.041961
0.080403
0.23602
0.41576
0.60431
0.78455
0.93747
1.0423
1.078
1.0388
0.93054
0.76679
0.56945
0.36353
0.16813
-0.0021005
-0.13818
-0.23634
-0.29633
-0.32301
-0.32228
-0.30051
-0.26453
-0.22162
-0.17951
-0.14354
-0.11462
-0.092919
-0.077921
-0.068404
-0.062469
-0.058493
-0.055748
-0.053627
-0.051675
-0.049591
-0.047231
-0.044596
-0.04164
-0.038297
-0.034526
-0.030287
-0.025539
-0.020246
-0.01437
-0.0078768
-0.0007316
0.0070941
0.015607
0.024837
0.034806
0.045526
0.056997
0.069207
0.082131
0.095736
0.10997
0.12479
0.1401
0.15584
0.17191
0.1882
0.20459
0.22097
0.23718
0.25307
0.26852
0.28341
0.29756
0.31081
0.32301
0.33402
0.34371
0.35199
0.35875
0.36392
0.36744
0.36926
0.36935
0.3677
0.3643
0.35916
0.35214
0.34337
0.33302
0.32127
0.30827
0.2942
0.2792
0.26342
0.24701
0.2301
0.21283
0.19533
0.1777
0.16008
0.14255
0.12524
0.10824
0.091632
0.075511
0.059954
0.045036
0.030826
0.017387
0.004777
-0.0069536
-0.017778
-0.027731
-0.036853
-0.045184
-0.052765
-0.059635
-0.065833
-0.071396
-0.076364
-0.080772
-0.084657
-0.088057
-0.091005
-0.093537
-0.095688
-0.097491
-0.09898
-0.10019
-0.10114
-0.10188
-0.10244
-0.10283
-0.1031
-0.10328
-0.10333
-0.10327
-0.10309
-0.10283
-0.1025
-0.10211
-0.10168
-0.10123
-0.10075
-0.10027
-0.099783
-0.099302
-0.098831
-0.098372
-0.097928
-0.097498
-0.097081
-0.096674
-0.096273
-0.09587
-0.09546
-0.095032
-0.094581
-0.094115
-0.093638
-0.093159
-0.09268
-0.092208
-0.091744
-0.091293
-0.090854
-0.09043
-0.090021
-0.089625
-0.089241
-0.088866
-0.088498
-0.088132
-0.087764
-0.087387
-0.086994
-0.08658
-0.086135
-0.08565
-0.085116
-0.084521
-0.083854
-0.083103
-0.082254
-0.081293
-0.080203
-0.078928
-0.077396
-0.07553
-0.073253
-0.070484
-0.067143
-0.063143
-0.0584
-0.052824
-0.046325
-0.03881
-0.030186
-0.020354
-0.0092637
0.0030542
0.01653
0.031057
0.046492
0.062656
0.079331
0.096265
0.11317
0.12971
0.14553
0.16023
0.17337
0.18452
0.19346
0.19993
0.20375
0.2048
0.20304
0.19851
0.19133
0.18169
0.16985
0.15617
0.141
0.1247
0.10768
0.090357
0.073072
0.056139
0.039825
0.024358
0.009919
-0.0033506
-0.015364
-0.026321
-0.036128
-0.044606
-0.051686
-0.057399
-0.061883
-0.065378
-0.068232
-0.070895
-0.073921
-0.077971
-0.083807
-0.092298
-0.1044
-0.12101
-0.14245
-0.16769
-0.19423
-0.21811
-0.23396
-0.23602
-0.21728
-0.17137
-0.094224
0.015943
0.15862
0.33139
0.52224
0.70908
0.87116
0.98941
1.0466
1.0275
0.93349
0.7826
0.5946
0.39001
0.19014
0.0143
-0.1289
-0.23523
-0.30363
-0.33634
-0.3388
-0.31795
-0.28236
-0.24031
-0.19816
-0.16041
-0.12965
-0.10661
-0.090419
-0.07951
-0.072416
-0.067889
-0.064892
-0.062601
-0.060403
-0.0579
-0.054905
-0.051443
-0.047753
-0.043886
-0.039593
-0.034831
-0.029559
-0.023737
-0.01733
-0.010302
-0.0026214
0.0057405
0.014811
0.024615
0.035164
0.046464
0.05851
0.071288
0.084771
0.098924
0.1137
0.12904
0.14487
0.16113
0.1777
0.19451
0.21142
0.22833
0.24509
0.26157
0.27761
0.29304
0.30769
0.3214
0.33409
0.34561
0.35581
0.36457
0.37179
0.37738
0.38128
0.38344
0.38384
0.38248
0.37936
0.37452
0.36801
0.3599
0.35029
0.33925
0.32686
0.31329
0.29873
0.28332
0.26723
0.25062
0.23362
0.21638
0.19903
0.1817
0.16451
0.14758
0.131
0.1149
0.099357
0.084468
0.070319
0.05697
0.044439
0.032727
0.021834
0.011754
0.0024786
-0.0060057
-0.013716
-0.020673
-0.026903
-0.032434
-0.0373
-0.041538
-0.04519
-0.0483
-0.050919
-0.053099
-0.054899
-0.056359
-0.057469
-0.058275
-0.058827
-0.059167
-0.059334
-0.05936
-0.059272
-0.059094
-0.058842
-0.058528
-0.05816
-0.057738
-0.05726
-0.056715
-0.056091
-0.055368
-0.054522
-0.053619
-0.052718
-0.051818
-0.05092
-0.050023
-0.049128
-0.048234
-0.047342
-0.046451
-0.045562
-0.044674
-0.043787
-0.042903
-0.042019
-0.041137
-0.040253
-0.039368
-0.038484
-0.037601
-0.036722
-0.035847
-0.034976
-0.034109
-0.033247
-0.032388
-0.031532
-0.030678
-0.029824
-0.028968
-0.028109
-0.027243
-0.026369
-0.025483
-0.024582
-0.023662
-0.02272
-0.021773
-0.020855
-0.019914
-0.018897
-0.017745
-0.016402
-0.014806
-0.012898
-0.010616
-0.007895
-0.0046708
-0.00087682
0.0035546
0.0086926
0.014608
0.021372
0.029058
0.037741
0.047497
0.058403
0.070537
0.083981
0.098765
0.11465
0.13133
0.14848
0.1658
0.18296
0.19966
0.21558
0.23041
0.24384
0.25556
0.26525
0.27261
0.27733
0.27909
0.27776
0.27356
0.26675
0.25762
0.24644
0.2335
0.21911
0.20357
0.1872
0.17033
0.15329
0.13643
0.1201
0.10466
0.090407
0.077332
0.065515
0.055007
0.045819
0.037923
0.031248
0.025685
0.021083
0.017252
0.013959
0.010934
0.0078834
0.0043155
-0.0011287
-0.0096378
-0.022037
-0.038788
-0.05999
-0.085324
-0.11212
-0.13529
-0.14946
-0.14899
-0.12804
-0.080532
-0.0015543
0.11161
0.25861
0.43319
0.62312
0.81027
0.97245
1.0853
1.1318
1.1047
1.0062
0.84844
0.65334
0.44831
0.25035
0.073454
-0.072476
-0.18182
-0.25328
-0.28981
-0.29593
-0.27861
-0.2461
-0.20548
-0.1627
-0.12256
-0.088734
-0.063014
-0.044301
-0.031115
-0.022112
-0.016086
-0.011967
-0.0088194
-0.00594
-0.0031042
-0.00018448
0.0029285
0.0063246
0.010074
0.014229
0.01882
0.023861
0.029379
0.035426
0.042046
0.049277
0.057152
0.065699
0.074938
0.084882
0.095542
0.10692
0.11901
0.1318
0.14529
0.15945
0.17429
0.18974
0.20569
0.22205
0.23869
0.25553
0.27244
0.28932
0.30605
0.32252
0.3386
0.35417
0.36912
0.3833
0.39659
0.40887
0.41999
0.42982
0.43822
0.44505
0.45022
0.45372
0.45552
0.45563
0.45404
0.45077
0.44586
0.43935
0.4313
0.42178
0.41088
0.39869
0.38532
0.37089
0.35555
0.33945
0.32274
0.30561
0.28823
0.27075
0.25324
0.23584
0.21867
0.20184
0.18545
0.16958
0.15431
0.1397
0.12581
0.11269
0.10035
0.088813
0.078096
0.068192
0.059084
0.050746
0.043172
0.036349
0.030228
0.024766
0.019917
0.015641
0.011895
0.0086396
0.0058373
0.0034509
0.001445
-0.00021439
-0.00156
-0.002623
-0.0034332
-0.0040191
-0.0044076
-0.0046244
-0.0046938
-0.0046384
-0.0044798
-0.0042287
-0.0038571
-0.0033796
-0.0028163
-0.0021856
-0.0015041
-0.0007865
-4.5993e-05
0.00070615
0.0014604
0.0022089
0.0029457
0.0036665
0.0043688
0.0050518
0.0057165
0.0063658
0.0070041
0.0076378
0.0082749
0.0089201
0.0095644
0.010206
0.010844
0.011476
0.012103
0.012724
0.013338
0.013946
0.014546
0.015139
0.015726
0.016307
0.016883
0.017454
0.018021
0.018586
0.019151
0.019715
0.020282
0.020853
0.021431
0.022016
0.022613
0.023224
0.023863
0.024545
0.025276
0.026066
0.026938
0.027919
0.029045
0.030358
0.031911
0.033761
0.035974
0.038626
0.041796
0.045574
0.050035
0.055216
0.061274
0.068349
0.076544
0.085924
0.096519
0.10832
0.12129
0.13533
0.15035
0.16618
0.18262
0.19946
0.21644
0.23333
0.24975
0.26521
0.27931
0.2917
0.30207
0.31018
0.31584
0.31891
0.31931
0.31701
0.31205
0.3045
0.29446
0.2822
0.26814
0.25272
0.23631
0.21928
0.20196
0.18465
0.16761
0.1511
0.13533
0.12049
0.10674
0.094195
0.082957
0.072963
0.064212
0.056681
0.0503
0.044946
0.040449
0.036586
0.033085
0.029622
0.026081
0.022523
0.016555
0.006335
-0.0090374
-0.029522
-0.054138
-0.080961
-0.10713
-0.12883
-0.1426
-0.14457
-0.12362
-0.071745
0.015126
0.13714
0.29052
0.46755
0.65659
0.84206
1.0045
1.1212
1.1741
1.1546
1.0644
0.91477
0.72658
0.52159
0.31981
0.13699
-0.016092
-0.13363
-0.21441
-0.25981
-0.27468
-0.26483
-0.23665
-0.19717
-0.15401
-0.11352
-0.078404
-0.050081
-0.02899
-0.014586
-0.0053387
0.00085459
0.0049938
0.0078869
0.010177
0.012319
0.014584
0.017054
0.019751
0.022765
0.026136
0.029904
0.034108
0.038784
0.04397
0.0497
0.056008
0.062907
0.07043
0.078617
0.087501
0.097102
0.10743
0.11849
0.13027
0.14276
0.15592
0.16972
0.1841
0.19902
0.21441
0.23018
0.24625
0.26252
0.27892
0.29534
0.31163
0.32763
0.34318
0.35815
0.3724
0.3858
0.39822
0.40955
0.41969
0.42853
0.43598
0.44195
0.44637
0.44916
0.45025
0.44958
0.4471
0.4429
0.43705
0.42963
0.42075
0.41048
0.39893
0.38619
0.37238
0.35759
0.34195
0.32557
0.30858
0.29109
0.27323
0.25515
0.23698
0.21886
0.20093
0.18336
0.16628
0.14978
0.13389
0.11865
0.1041
0.090276
0.077205
0.064909
0.053401
0.042688
0.032769
0.023636
0.015276
0.0076658
0.00077747
-0.0054247
-0.010984
-0.015949
-0.020377
-0.02432
-0.027792
-0.030831
-0.033478
-0.035769
-0.03774
-0.039423
-0.040849
-0.042047
-0.043045
-0.043866
-0.044533
-0.045066
-0.045484
-0.045802
-0.046036
-0.046196
-0.046288
-0.046312
-0.046277
-0.046192
-0.046067
-0.045909
-0.045725
-0.045522
-0.045306
-0.045082
-0.044856
-0.04463
-0.044408
-0.044193
-0.043986
-0.04379
-0.043604
-0.043429
-0.043264
-0.043107
-0.042956
-0.04281
-0.042663
-0.042513
-0.042358
-0.042201
-0.042046
-0.041893
-0.041744
-0.041599
-0.041459
-0.041323
-0.041192
-0.041064
-0.040938
-0.040813
-0.040687
-0.040557
-0.040421
-0.040276
-0.040118
-0.039944
-0.03975
-0.03953
-0.039288
-0.039017
-0.03869
-0.038272
-0.037727
-0.037011
-0.03608
-0.034881
-0.033362
-0.031462
-0.029119
-0.026265
-0.022829
-0.018735
-0.013902
-0.0082466
-0.0016799
0.0058908
0.014563
0.024437
0.035567
0.047877
0.061287
0.075688
0.090932
0.10684
0.1232
0.13977
0.15625
0.17235
0.1877
0.20192
0.21459
0.22543
0.23415
0.24051
0.24431
0.24546
0.24389
0.23963
0.23276
0.22344
0.21189
0.19839
0.18332
0.16704
0.14986
0.13217
0.11434
0.096687
0.079489
0.062985
0.047373
0.032807
0.0194
0.0072213
-0.0037065
-0.013598
-0.022397
-0.02997
-0.036292
-0.041446
-0.045618
-0.049104
-0.052305
-0.055731
-0.059996
-0.065823
-0.074041
-0.085573
-0.10126
-0.12169
-0.1463
-0.17323
-0.19927
-0.21993
-0.22986
-0.22313
-0.1931
-0.13495
-0.045776
0.075424
0.2278
0.40756
0.59817
0.7803
0.93538
1.0456
1.0937
1.0667
0.96958
0.81576
0.62375
0.41713
0.21799
0.040807
-0.1044
-0.21256
-0.2831
-0.31836
-0.32429
-0.30745
-0.27472
-0.23326
-0.19052
-0.15248
-0.12095
-0.096578
-0.079217
-0.067902
-0.06087
-0.056192
-0.05305
-0.050759
-0.048797
-0.046802
-0.044575
-0.04208
-0.039305
-0.036168
-0.032627
-0.028642
-0.024174
-0.019186
-0.013641
-0.0075036
-0.0007388
0.0066849
0.014775
0.023559
0.033066
0.043314
0.054308
0.066044
0.078506
0.091664
0.10548
0.11991
0.13488
0.15032
0.16616
0.18228
0.19859
0.21497
0.23129
0.24741
0.26318
0.27851
0.29323
0.30718
0.3202
0.33215
0.3429
0.35233
0.36034
0.36684
0.37177
0.37507
0.37668
0.37657
0.37474
0.37117
0.36578
0.35855
0.34964
0.33921
0.32744
0.31446
0.30042
0.28548
0.26977
0.25342
0.23657
0.21934
0.20185
0.18423
0.16657
0.149
0.13161
0.11451
0.09778
0.081517
0.065806
0.050727
0.036356
0.022763
0.010017
-0.0018303
-0.0128
-0.022926
-0.032242
-0.040781
-0.048577
-0.055663
-0.062072
-0.06784
-0.072999
-0.077586
-0.081634
-0.085179
-0.088256
-0.0909
-0.093147
-0.095034
-0.096595
-0.097869
-0.09889
-0.099698
-0.10033
-0.10082
-0.10118
-0.10143
-0.10158
-0.10163
-0.10159
-0.10149
-0.10132
-0.1011
-0.10083
-0.10052
-0.10017
-0.099801
-0.099409
-0.099002
-0.098582
-0.098155
-0.097724
-0.09729
-0.096856
-0.096423
-0.095992
-0.095555
-0.095114
-0.094671
-0.094226
-0.093782
-0.093339
-0.092897
-0.092459
-0.092023
-0.09159
-0.09116
-0.090733
-0.090309
-0.089886
-0.089463
-0.089041
-0.088616
-0.088189
-0.087756
-0.087317
-0.086869
-0.08641
-0.085936
-0.085447
-0.084937
-0.084405
-0.083847
-0.083248
-0.082587
-0.081852
-0.081024
-0.080074
-0.078966
-0.077656
-0.076091
-0.07421
-0.071945
-0.069219
-0.065946
-0.062033
-0.057379
-0.05192
-0.045582
-0.038215
-0.029707
-0.019987
-0.009026
0.0031639
0.01653
0.030979
0.046374
0.062541
0.079262
0.096279
0.11329
0.13002
0.14614
0.16117
0.17467
0.18629
0.19574
0.20277
0.20721
0.20896
0.20798
0.20428
0.19794
0.18912
0.17797
0.16476
0.14994
0.13395
0.11719
0.10003
0.0828
0.065798
0.049285
0.033489
0.018603
0.0047826
-0.0078477
-0.0192
-0.029265
-0.038157
-0.045815
-0.052238
-0.057504
-0.061778
-0.065307
-0.068422
-0.071538
-0.075153
-0.079849
-0.086168
-0.095445
-0.10928
-0.12819
-0.15155
-0.17765
-0.20363
-0.22575
-0.23837
-0.23417
-0.20709
-0.15245
-0.066964
0.051256
0.2029
0.38215
0.57195
0.75389
0.90912
1.0183
1.0617
1.027
0.92383
0.76735
0.57558
0.36927
0.17147
-0.0019547
-0.14326
-0.24798
-0.31512
-0.34718
-0.34959
-0.32893
-0.29401
-0.25243
-0.2102
-0.17176
-0.13998
-0.11614
-0.099353
-0.087871
-0.08017
-0.074987
-0.071312
-0.06839
-0.065721
-0.063047
-0.060195
-0.057087
-0.053671
-0.049896
-0.045717
-0.041088
-0.035968
-0.030319
-0.024106
-0.017294
-0.0098555
-0.0017617
0.0070113
0.016485
0.026678
0.037606
0.049305
0.061961
0.07552
0.089867
0.10489
0.12048
0.13652
0.1529
0.16951
0.18625
0.20299
0.21964
0.23608
0.25221
0.26792
0.28309
0.29763
0.31143
0.32438
0.33638
0.34732
0.3571
0.36561
0.37275
0.37843
0.38253
0.38495
0.3856
0.38438
0.3811
0.37577
0.36857
0.3597
0.34934
0.33766
0.32483
0.311
0.29634
0.28099
0.26509
0.24877
0.23215
0.21537
0.19852
0.18172
0.16507
0.14866
0.13256
0.11687
0.10165
0.086967
0.07288
0.059441
0.046692
0.034673
0.023413
0.012936
0.0032602
-0.0056048
-0.013656
-0.020893
-0.027349
-0.03308
-0.038143
-0.042589
-0.046471
-0.049834
-0.052725
-0.055185
-0.057254
-0.05897
-0.060366
-0.061474
-0.062323
-0.062941
-0.063349
-0.063571
-0.063623
-0.063522
-0.06328
-0.062909
-0.062416
-0.061807
-0.061083
-0.060244
-0.059318
-0.058389
-0.057461
-0.056535
-0.05561
-0.054687
-0.053765
-0.052845
-0.051927
-0.051011
-0.050096
-0.049182
-0.048271
-0.047361
-0.046453
-0.045546
-0.044641
-0.043738
-0.042837
-0.041937
-0.041039
-0.040142
-0.039248
-0.038354
-0.037458
-0.036561
-0.035666
-0.034774
-0.033887
-0.033004
-0.032126
-0.031251
-0.030379
-0.029508
-0.028634
-0.027755
-0.026867
-0.025965
-0.025046
-0.024102
-0.023129
-0.02212
-0.021076
-0.019991
-0.018823
-0.017527
-0.016056
-0.014355
-0.012369
-0.010037
-0.0072949
-0.004075
-0.00030547
0.0040895
0.0091892
0.015077
0.02184
0.029569
0.038359
0.048308
0.059518
0.071997
0.085656
0.10039
0.11604
0.13245
0.1494
0.16665
0.18392
0.2009
0.21725
0.23258
0.24649
0.25855
0.26846
0.276
0.28098
0.28326
0.28278
0.27956
0.27368
0.26528
0.25458
0.24186
0.22746
0.21182
0.19536
0.17839
0.16128
0.14437
0.12797
0.11231
0.097601
0.083996
0.071603
0.060485
0.050657
0.042086
0.035673
0.031563
0.028716
0.026224
0.023311
0.019331
0.013771
0.00625
-0.0034825
-0.015545
-0.029924
-0.046474
-0.06492
-0.084853
-0.10573
-0.12689
-0.14737
-0.16081
-0.15813
-0.13262
-0.079313
0.0049252
0.12145
0.26983
0.44926
0.64415
0.82943
0.98392
1.0904
1.1356
1.1103
1.0107
0.85355
0.66284
0.45942
0.26109
0.082629
-0.064459
-0.17529
-0.25002
-0.29063
-0.3009
-0.28637
-0.25435
-0.21346
-0.17018
-0.12936
-0.094339
-0.066805
-0.046838
-0.03293
-0.023411
-0.017033
-0.012644
-0.0093427
-0.0064814
-0.0036645
-0.00074866
0.0023208
0.0056646
0.0093273
0.013352
0.01778
0.02265
0.028
0.033867
0.040285
0.047279
0.054857
0.063064
0.071942
0.08152
0.091821
0.10285
0.11462
0.12711
0.14031
0.15418
0.16868
0.18377
0.19938
0.21544
0.23188
0.2486
0.26551
0.28248
0.29941
0.31622
0.33276
0.34886
0.36436
0.37912
0.39299
0.40585
0.41758
0.42807
0.43723
0.44496
0.45119
0.45586
0.45891
0.46029
0.45997
0.45792
0.45398
0.44824
0.44085
0.43194
0.42165
0.41012
0.39747
0.38383
0.36934
0.35411
0.33826
0.32191
0.30519
0.28819
0.27103
0.25383
0.23668
0.21968
0.20294
0.18655
0.17061
0.15521
0.14045
0.12639
0.11314
0.10075
0.089202
0.078462
0.068516
0.059348
0.050939
0.043267
0.036307
0.030033
0.024416
0.019424
0.015024
0.01118
0.0078526
0.0050017
0.0025837
0.0005529
-0.0011387
-0.002543
-0.0036984
-0.0046179
-0.005314
-0.0057998
-0.0060895
-0.0061977
-0.0061397
-0.0059318
-0.0055909
-0.0051344
-0.0045807
-0.003949
-0.0032589
-0.0025309
-0.0017863
-0.001047
-0.00033577
0.00034541
0.0010214
0.0016925
0.0023589
0.0030204
0.0036772
0.0043293
0.0049765
0.005619
0.0062568
0.0068898
0.007518
0.0081416
0.0087604
0.0093745
0.0099839
0.010589
0.011189
0.011784
0.012377
0.012966
0.01355
0.014129
0.014702
0.015269
0.015831
0.016387
0.016939
0.017488
0.018034
0.018579
0.019126
0.019676
0.020232
0.020796
0.021371
0.021968
0.022604
0.023282
0.024009
0.0248
0.025675
0.026666
0.027807
0.029142
0.030721
0.032601
0.034848
0.037533
0.040735
0.04454
0.049041
0.054339
0.06054
0.067706
0.075898
0.085212
0.095703
0.10739
0.12024
0.13418
0.14912
0.1649
0.18133
0.19818
0.21517
0.23199
0.2483
0.26371
0.27797
0.29065
0.3014
0.30993
0.31602
0.3195
0.32029
0.31837
0.31377
0.30661
0.29707
0.28539
0.27181
0.25663
0.2403
0.22322
0.20576
0.18826
0.171
0.15425
0.13822
0.1231
0.10903
0.096109
0.084419
0.073987
0.064763
0.056662
0.049722
0.043908
0.0391
0.035098
0.031615
0.028282
0.024648
0.020176
0.014346
0.0062043
-0.0059582
-0.022974
-0.04469
-0.069964
-0.096668
-0.12174
-0.14094
-0.14746
-0.13503
-0.098537
-0.033964
0.061568
0.18982
0.35001
0.53196
0.72096
0.9
1.0498
1.1488
1.179
1.1356
1.0228
0.85509
0.65698
0.45108
0.25548
0.084437
-0.053224
-0.15382
-0.21742
-0.24738
-0.24864
-0.22756
-0.19195
-0.15007
-0.10802
-0.070278
-0.039488
-0.016503
-0.0003934
0.010398
0.017341
0.021784
0.024788
0.027122
0.029268
0.031422
0.033725
0.036281
0.039142
0.042357
0.045972
0.05003
0.05457
0.059629
0.06524
0.07141
0.078166
0.085564
0.093646
0.10244
0.11198
0.12227
0.13332
0.1451
0.15761
0.1708
0.18465
0.19909
0.21407
0.22951
0.24532
0.26141
0.27768
0.29401
0.31027
0.32636
0.34217
0.35754
0.37228
0.38623
0.39925
0.41121
0.42197
0.43144
0.4395
0.44609
0.45112
0.45453
0.45628
0.45633
0.45465
0.45124
0.44604
0.43897
0.43021
0.41992
0.40825
0.39535
0.38138
0.36647
0.35077
0.3344
0.31751
0.30021
0.28263
0.26489
0.24708
0.22933
0.21174
0.1944
0.17741
0.16086
0.14483
0.1294
0.11466
0.10067
0.087498
0.075207
0.063804
0.053253
0.043517
0.034563
0.026355
0.01886
0.012043
0.0058691
0.00030389
-0.0046869
-0.0091377
-0.013083
-0.016557
-0.019593
-0.022227
-0.024492
-0.026423
-0.028053
-0.029417
-0.030548
-0.031482
-0.032251
-0.032889
-0.033426
-0.033864
-0.034213
-0.034481
-0.034678
-0.034813
-0.034892
-0.034925
-0.034917
-0.034876
-0.034808
-0.034718
-0.034611
-0.034493
-0.034366
-0.034235
-0.034103
-0.033973
-0.033846
-0.033725
-0.033603
-0.03348
-0.033357
-0.033235
-0.033115
-0.032999
-0.032887
-0.03278
-0.032678
-0.032582
-0.032491
-0.032405
-0.032324
-0.032247
-0.032173
-0.032103
-0.032033
-0.031964
-0.031894
-0.03182
-0.031742
-0.031657
-0.031562
-0.031456
-0.031335
-0.031197
-0.031039
-0.030854
-0.030619
-0.030325
-0.029955
-0.029488
-0.028893
-0.02813
-0.027154
-0.025909
-0.024332
-0.022352
-0.019892
-0.016863
-0.013177
-0.0087936
-0.0035764
0.0026177
0.0098978
0.018339
0.027981
0.038832
0.050864
0.064015
0.07819
0.093259
0.10906
0.12539
0.14212
0.15888
0.1752
0.19065
0.20483
0.2174
0.22806
0.23657
0.24272
0.24635
0.24735
0.24566
0.24126
0.23417
0.22435
0.21215
0.19805
0.1825
0.1659
0.14864
0.13106
0.11348
0.096162
0.079359
0.063279
0.048096
0.033951
0.020953
0.0091736
-0.0013462
-0.010601
-0.01865
-0.025715
-0.031742
-0.036743
-0.040874
-0.044431
-0.047847
-0.051702
-0.056712
-0.063735
-0.073767
-0.087692
-0.10639
-0.12974
-0.15626
-0.18306
-0.2059
-0.21952
-0.21781
-0.1939
-0.14257
-0.060357
0.05443
0.20183
0.37816
0.56746
0.75118
0.91047
1.0262
1.0789
1.0554
0.95942
0.8031
0.6085
0.4025
0.20531
0.032826
-0.10522
-0.20466
-0.26591
-0.29267
-0.29034
-0.26602
-0.22852
-0.18632
-0.14545
-0.11011
-0.082498
-0.062866
-0.04963
-0.04113
-0.035862
-0.03255
-0.030226
-0.028233
-0.026223
-0.024112
-0.021756
-0.019084
-0.016046
-0.012595
-0.0086849
-0.0042723
0.00068379
0.0062224
0.01238
0.019176
0.026648
0.034839
0.043779
0.053487
0.063973
0.075233
0.087251
0.1
0.11345
0.12754
0.14222
0.15741
0.17304
0.189
0.20522
0.22158
0.23791
0.25407
0.26987
0.28518
0.29984
0.31371
0.32664
0.33852
0.3492
0.35857
0.3665
0.37288
0.37761
0.38058
0.38174
0.38107
0.37862
0.37442
0.36852
0.36098
0.35188
0.34129
0.32932
0.31608
0.30169
0.28628
0.26999
0.25299
0.23544
0.21753
0.19945
0.1814
0.16346
0.14576
0.12841
0.11151
0.095161
0.079448
0.064438
0.050186
0.036739
0.024126
0.012368
0.001471
-0.0085714
-0.017778
-0.026179
-0.033812
-0.040684
-0.046841
-0.052331
-0.057203
-0.061501
-0.065271
-0.068555
-0.071395
-0.073829
-0.075897
-0.077634
-0.079075
-0.080254
-0.081201
-0.081947
-0.08252
-0.082947
-0.083233
-0.083354
-0.083334
-0.083199
-0.08297
-0.082668
-0.08231
-0.081914
-0.081493
-0.08106
-0.080625
-0.080196
-0.079778
-0.079377
-0.078993
-0.078627
-0.078276
-0.077937
-0.077604
-0.077267
-0.076916
-0.076546
-0.076162
-0.07577
-0.075374
-0.074977
-0.074581
-0.07419
-0.073805
-0.073426
-0.073056
-0.072694
-0.072339
-0.071991
-0.071649
-0.071309
-0.070971
-0.070631
-0.070285
-0.069928
-0.069558
-0.069167
-0.068752
-0.068304
-0.067818
-0.067286
-0.0667
-0.066052
-0.065331
-0.064501
-0.063519
-0.062337
-0.060899
-0.059143
-0.057
-0.054391
-0.051232
-0.047433
-0.042893
-0.037508
-0.031163
-0.023741
-0.015187
-0.0054339
0.0055666
0.017815
0.031264
0.045817
0.061329
0.077608
0.094411
0.11145
0.12838
0.14483
0.16035
0.17457
0.18713
0.19763
0.20574
0.21123
0.21394
0.21378
0.21076
0.20496
0.19655
0.18578
0.1729
0.15827
0.14234
0.12557
0.10835
0.091036
0.073965
0.057419
0.041645
0.026856
0.013222
0.00087502
-0.010286
-0.02021
-0.028773
-0.035945
-0.041786
-0.04645
-0.050185
-0.05333
-0.056319
-0.059677
-0.064021
-0.070065
-0.078588
-0.090939
-0.10837
-0.13078
-0.15664
-0.18304
-0.20572
-0.21914
-0.21586
-0.18938
-0.13452
-0.047486
0.074207
0.2306
0.41107
0.5998
0.77833
0.9255
1.0175
1.0336
0.97447
0.85019
0.6764
0.47421
0.2697
0.082831
-0.075538
-0.19834
-0.28249
-0.3289
-0.34245
-0.32966
-0.2989
-0.25875
-0.21612
-0.17621
-0.14257
-0.11707
-0.099021
-0.08664
-0.078358
-0.072855
-0.069057
-0.066139
-0.06352
-0.060854
-0.058003
-0.054903
-0.051494
-0.04772
-0.04353
-0.038875
-0.033711
-0.027999
-0.021701
-0.014785
-0.0072291
0.00099023
0.0099158
0.01958
0.030005
0.041199
0.05316
0.065874
0.079316
0.093449
0.10822
0.12358
0.13944
0.15573
0.17235
0.1892
0.20615
0.22314
0.23999
0.25654
0.2726
0.28802
0.30265
0.31633
0.32895
0.34037
0.35048
0.35919
0.36638
0.37198
0.37592
0.37811
0.37852
0.37704
0.37369
0.36857
0.36178
0.35345
0.34367
0.33257
0.32027
0.30687
0.29252
0.27732
0.26142
0.24493
0.22801
0.21078
0.19338
0.17595
0.15864
0.1416
0.12498
0.10893
0.093577
0.078924
0.065005
0.051854
0.039496
0.027948
0.017222
0.0073217
-0.0017555
-0.010019
-0.017487
-0.024182
-0.030136
-0.035385
-0.039976
-0.043959
-0.047394
-0.050344
-0.052835
-0.054902
-0.056585
-0.057923
-0.058954
-0.059711
-0.060226
-0.060529
-0.060646
-0.060603
-0.060422
-0.060123
-0.059723
-0.059237
-0.058679
-0.058059
-0.057384
-0.056661
-0.055894
-0.055091
-0.054257
-0.053397
-0.052516
-0.05162
-0.050711
-0.049794
-0.048871
-0.047947
-0.047023
-0.046102
-0.045185
-0.044273
-0.043368
-0.04247
-0.041578
-0.040693
-0.039814
-0.03894
-0.038069
-0.037199
-0.036328
-0.035453
-0.034571
-0.033686
-0.032802
-0.031922
-0.031048
-0.030179
-0.029316
-0.028458
-0.0276
-0.026739
-0.02587
-0.024988
-0.024084
-0.02315
-0.022177
-0.021154
-0.020069
-0.018913
-0.017717
-0.016425
-0.014955
-0.013223
-0.01115
-0.0086534
-0.0056556
-0.0020782
0.0021559
0.0071226
0.012897
0.019553
0.027162
0.035798
0.04553
0.056429
0.068562
0.082012
0.09697
0.11315
0.13016
0.1476
0.1651
0.18231
0.19891
0.21458
0.22902
0.24195
0.25312
0.26229
0.26923
0.27374
0.27564
0.27475
0.27094
0.26411
0.25457
0.2428
0.22924
0.21432
0.19843
0.18193
0.16516
0.14843
0.13201
0.11616
0.10109
0.087001
0.074059
0.0624
0.052117
0.0431
0.035347
0.028845
0.023511
0.019189
0.015649
0.012591
0.0096408
0.0063529
0.002325
-0.0031584
-0.012151
-0.025926
-0.044757
-0.067911
-0.093655
-0.11926
-0.14071
-0.15146
-0.14475
-0.11463
-0.056053
0.035205
0.16147
0.31955
0.50073
0.69102
0.8711
1.0164
1.1019
1.116
1.0565
0.93068
0.75432
0.55219
0.34868
0.15937
-0.0036342
-0.13245
-0.22341
-0.27706
-0.29797
-0.29125
-0.26505
-0.22737
-0.18493
-0.14313
-0.10602
-0.076355
-0.054563
-0.039083
-0.028391
-0.021157
-0.016242
-0.012697
-0.0097685
-0.0069421
-0.0040484
-0.00099517
0.0022991
0.0059053
0.0098837
0.014284
0.019144
0.024493
0.030347
0.036732
0.043701
0.0513
0.059568
0.068535
0.078221
0.088638
0.099791
0.11167
0.12427
0.13757
0.15153
0.16611
0.18127
0.19695
0.21308
0.22962
0.24647
0.26349
0.28054
0.29749
0.31419
0.33052
0.34634
0.36152
0.37594
0.38946
0.40197
0.41334
0.42345
0.43219
0.43943
0.44507
0.44901
0.45123
0.45172
0.4505
0.44759
0.44302
0.43685
0.42913
0.41993
0.40933
0.39743
0.38433
0.37016
0.35503
0.3391
0.32252
0.30545
0.28806
0.27056
0.25306
0.23566
0.21846
0.20159
0.18514
0.1692
0.15385
0.13916
0.12518
0.11195
0.099516
0.087892
0.077089
0.067107
0.057934
0.049546
0.041911
0.035009
0.028826
0.023314
0.018427
0.014121
0.010354
0.0070838
0.0042716
0.0018791
-0.00012998
-0.0017907
-0.0031364
-0.0041989
-0.0050085
-0.005594
-0.0059824
-0.0061995
-0.0062693
-0.0062144
-0.0060558
-0.0057818
-0.0053798
-0.0048727
-0.0042816
-0.0036254
-0.0029213
-0.0021845
-0.0014284
-0.00066426
9.837e-05
0.00085192
0.0015908
0.0023111
0.0030112
0.003691
0.0043527
0.0050001
0.005639
0.0062772
0.0069239
0.0075741
0.0082216
0.0088655
0.0095048
0.010139
0.010767
0.011389
0.012005
0.012614
0.013217
0.013813
0.014403
0.014988
0.015568
0.016144
0.016717
0.017288
0.017858
0.018429
0.019002
0.019578
0.020161
0.020751
0.021351
0.021972
0.02263
0.023325
0.024068
0.024873
0.025765
0.026774
0.027939
0.029306
0.030928
0.032867
0.03519
0.037973
0.0413
0.045247
0.049841
0.05524
0.061593
0.069017
0.077593
0.087367
0.098354
0.11053
0.12384
0.13819
0.15346
0.16948
0.18607
0.203
0.22007
0.23692
0.25305
0.26804
0.28153
0.29318
0.30273
0.30996
0.31468
0.31679
0.31622
0.31293
0.30698
0.29839
0.28732
0.27423
0.25954
0.24366
0.22698
0.20982
0.19252
0.17535
0.15858
0.14243
0.12709
0.11275
0.099535
0.087554
0.076888
0.067462
0.059236
0.052213
0.046328
0.041444
0.037357
0.033793
0.030408
0.026788
0.022498
0.017702
0.010355
-0.0015186
-0.018771
-0.041133
-0.067211
-0.094493
-0.11934
-0.137
-0.14184
-0.12925
-0.091018
-0.021054
0.083027
0.2199
0.38454
0.56819
0.75849
0.93554
1.0729
1.1513
1.1595
1.0948
0.96321
0.78506
0.5841
0.38081
0.19225
0.032084
-0.091939
-0.17877
-0.22975
-0.24824
-0.23963
-0.21131
-0.17226
-0.12964
-0.088929
-0.053909
-0.02652
-0.0068748
0.0065954
0.015437
0.02107
0.024718
0.02732
0.029526
0.031698
0.033943
0.036398
0.039139
0.042217
0.045679
0.049567
0.053923
0.058787
0.064194
0.070167
0.076717
0.0839
0.091761
0.10034
0.10965
0.11972
0.13054
0.14211
0.15442
0.16743
0.1811
0.19539
0.21023
0.22556
0.24129
0.25733
0.27357
0.28991
0.30624
0.32247
0.33842
0.35392
0.36879
0.3829
0.3961
0.40826
0.41924
0.42896
0.4373
0.44417
0.44949
0.4532
0.45523
0.45554
0.45409
0.45076
0.44552
0.43852
0.4299
0.41979
0.40835
0.39569
0.38196
0.36728
0.35179
0.33561
0.31886
0.30166
0.28415
0.26642
0.2486
0.23081
0.21314
0.19571
0.17863
0.162
0.14591
0.13048
0.11579
0.10195
0.089
0.076908
0.065652
0.05521
0.04556
0.036677
0.028536
0.021108
0.014366
0.0082783
0.0028146
-0.0020587
-0.0063761
-0.010173
-0.013488
-0.016359
-0.018827
-0.020933
-0.02272
-0.024234
-0.025519
-0.026622
-0.027558
-0.02834
-0.028979
-0.029489
-0.029882
-0.030169
-0.030363
-0.030475
-0.030516
-0.030497
-0.030429
-0.030323
-0.030187
-0.030034
-0.029871
-0.029709
-0.029557
-0.029419
-0.029286
-0.029155
-0.029026
-0.0289
-0.028776
-0.028655
-0.028537
-0.028421
-0.028307
-0.028196
-0.028087
-0.027981
-0.027876
-0.027775
-0.027675
-0.027577
-0.027481
-0.027387
-0.027295
-0.027205
-0.027116
-0.027029
-0.026935
-0.026816
-0.026684
-0.02655
-0.026422
-0.026305
-0.026198
-0.026097
-0.025992
-0.025871
-0.025718
-0.02551
-0.025224
-0.024829
-0.024291
-0.023575
-0.022636
-0.02143
-0.019907
-0.018014
-0.015702
-0.01285
-0.0093289
-0.0050231
0.00016701
0.0063266
0.013526
0.021821
0.031251
0.041843
0.053608
0.066542
0.080632
0.095737
0.1116
0.12793
0.14446
0.16088
0.17689
0.19215
0.20635
0.21913
0.23014
0.23902
0.24539
0.24906
0.24999
0.24816
0.24363
0.23649
0.2269
0.21509
0.20132
0.18593
0.16931
0.15191
0.13413
0.1163
0.098728
0.081714
0.065497
0.050271
0.036186
0.023341
0.011789
0.0015381
-0.0074531
-0.015321
-0.022196
-0.028004
-0.032798
-0.036773
-0.040264
-0.043748
-0.047844
-0.053315
-0.061061
-0.072059
-0.087259
-0.10742
-0.13198
-0.15898
-0.18508
-0.2055
-0.21492
-0.20635
-0.17337
-0.11132
-0.017337
0.10965
0.26917
0.45275
0.64208
0.81815
0.96167
1.0531
1.0732
1.017
0.89411
0.72036
0.51824
0.31346
0.1241
-0.036705
-0.16128
-0.24725
-0.29559
-0.31168
-0.30213
-0.27389
-0.23431
-0.19114
-0.15163
-0.11858
-0.092787
-0.074239
-0.062079
-0.054612
-0.04975
-0.046528
-0.044225
-0.042284
-0.040319
-0.03812
-0.035648
-0.032885
-0.029747
-0.026193
-0.02218
-0.017668
-0.012618
-0.0069901
-0.0007488
0.0061423
0.013711
0.021966
0.030943
0.040668
0.051155
0.062408
0.074415
0.087155
0.10059
0.11469
0.12937
0.14458
0.16023
0.17623
0.19247
0.20883
0.22517
0.24137
0.25726
0.27274
0.28765
0.30182
0.31507
0.32726
0.33824
0.34789
0.35612
0.36281
0.36791
0.37133
0.37304
0.37299
0.37117
0.36758
0.36208
0.35473
0.34568
0.33511
0.32318
0.31004
0.29585
0.28075
0.2649
0.24842
0.23146
0.21414
0.19658
0.17892
0.16127
0.14373
0.12641
0.10942
0.092856
0.076808
0.061366
0.046613
0.032629
0.019489
0.0072587
-0.0040665
-0.014524
-0.024145
-0.032965
-0.041016
-0.048332
-0.054948
-0.060899
-0.066219
-0.070944
-0.075112
-0.078757
-0.081918
-0.084631
-0.086935
-0.088867
-0.090467
-0.091774
-0.092827
-0.093666
-0.094332
-0.094859
-0.095254
-0.09553
-0.095699
-0.095773
-0.095763
-0.095679
-0.095531
-0.095329
-0.09508
-0.094792
-0.094474
-0.09413
-0.093767
-0.093391
-0.093005
-0.092613
-0.092219
-0.091825
-0.091434
-0.091043
-0.090648
-0.09025
-0.08985
-0.089449
-0.089049
-0.088649
-0.088251
-0.087855
-0.087462
-0.08707
-0.08668
-0.086293
-0.085906
-0.08552
-0.085134
-0.084747
-0.084358
-0.083965
-0.083567
-0.083162
-0.082749
-0.082325
-0.081888
-0.081436
-0.080966
-0.080476
-0.079949
-0.079371
-0.078732
-0.078017
-0.077202
-0.076254
-0.075132
-0.073785
-0.072154
-0.070173
-0.067766
-0.064848
-0.061326
-0.0571
-0.05213
-0.046297
-0.039438
-0.031432
-0.0222
-0.011703
5.5569e-05
0.01303
0.027135
0.042242
0.058182
0.074745
0.091677
0.10869
0.12556
0.14182
0.15699
0.17061
0.18233
0.19183
0.19888
0.20331
0.20499
0.20389
0.20003
0.19348
0.18439
0.17291
0.15938
0.14428
0.12807
0.11116
0.093928
0.076713
0.059815
0.043495
0.027977
0.013448
5.4401e-05
-0.012094
-0.022925
-0.032465
-0.04089
-0.048091
-0.054034
-0.058804
-0.0626
-0.065739
-0.068656
-0.0719
-0.076138
-0.082153
-0.090816
-0.1032
-0.12055
-0.14284
-0.16863
-0.19508
-0.21798
-0.232
-0.23
-0.20546
-0.15321
-0.06934
0.048733
0.20153
0.3796
0.56812
0.74948
0.90329
1.0064
1.0369
0.99296
0.88246
0.71891
0.52142
0.31463
0.11931
-0.05221
-0.19107
-0.29291
-0.35774
-0.3879
-0.38959
-0.36989
-0.33568
-0.29362
-0.25018
-0.21142
-0.17987
-0.15538
-0.13742
-0.12511
-0.11719
-0.11206
-0.10818
-0.10506
-0.1023
-0.099616
-0.096774
-0.093634
-0.090138
-0.0863
-0.082092
-0.077451
-0.072335
-0.066707
-0.060528
-0.053766
-0.046389
-0.038369
-0.029679
-0.020296
-0.010201
0.0006226
0.012172
0.024445
0.037427
0.051097
0.065419
0.080348
0.095831
0.1118
0.12818
0.14488
0.1618
0.17884
0.19587
0.21276
0.22938
0.24557
0.26121
0.2762
0.29035
0.30351
0.31553
0.3263
0.33569
0.34362
0.35001
0.35479
0.35791
0.35934
0.35908
0.3571
0.35344
0.34812
0.34118
0.33261
0.32253
0.3111
0.29847
0.2848
0.27021
0.25486
0.23889
0.22242
0.20558
0.18851
0.17132
0.15413
0.13705
0.12019
0.10366
0.087565
0.071996
0.057051
0.042818
0.029375
0.016733
0.0048942
-0.0061427
-0.016383
-0.025835
-0.034511
-0.042426
-0.0496
-0.056055
-0.061817
-0.066916
-0.071385
-0.07526
-0.078583
-0.081396
-0.083747
-0.085686
-0.087269
-0.088549
-0.089558
-0.090309
-0.09082
-0.091107
-0.091185
-0.091072
-0.090785
-0.090341
-0.089757
-0.089051
-0.08824
-0.087344
-0.08638
-0.085366
-0.084322
-0.083267
-0.082221
-0.081202
-0.080201
-0.079203
-0.078206
-0.077211
-0.076218
-0.075227
-0.074237
-0.073249
-0.072263
-0.071279
-0.070297
-0.069317
-0.068338
-0.067362
-0.066387
-0.065414
-0.064443
-0.063474
-0.062506
-0.061541
-0.060577
-0.059615
-0.058646
-0.057672
-0.056698
-0.055727
-0.054763
-0.053807
-0.052858
-0.051915
-0.050977
-0.050037
-0.049093
-0.048136
-0.047158
-0.046151
-0.045104
-0.044005
-0.04284
-0.041595
-0.040254
-0.038859
-0.037404
-0.035774
-0.033857
-0.031549
-0.028755
-0.025384
-0.021354
-0.016588
-0.011017
-0.0045795
0.0027802
0.011111
0.020453
0.030842
0.042306
0.054865
0.068533
0.083317
0.099172
0.11583
0.133
0.15041
0.16776
0.18473
0.20099
0.21621
0.23002
0.24206
0.25196
0.25951
0.26449
0.26679
0.26635
0.26317
0.25734
0.24903
0.23844
0.2259
0.21173
0.19624
0.17985
0.16297
0.14596
0.12912
0.11275
0.097078
0.082302
0.06858
0.056029
0.044723
0.034673
0.025805
0.018166
0.011752
0.0064857
0.0022223
-0.0012558
-0.0042364
-0.0070784
-0.010211
-0.014136
-0.019282
-0.027024
-0.038968
-0.055788
-0.077215
-0.10204
-0.12811
-0.15245
-0.16996
-0.17368
-0.15755
-0.11654
-0.046689
0.054937
0.19024
0.35647
0.54156
0.73023
0.90471
1.0448
1.1279
1.139
1.0776
0.95252
0.78066
0.58218
0.37714
0.18358
0.01389
-0.12454
-0.22767
-0.29476
-0.32837
-0.33304
-0.31509
-0.28238
-0.24169
-0.19868
-0.15793
-0.12291
-0.095632
-0.075413
-0.060845
-0.050646
-0.043659
-0.038855
-0.035327
-0.032302
-0.029366
-0.0264
-0.0233
-0.019977
-0.016355
-0.012376
-0.0079954
-0.0031835
0.0020742
0.0077956
0.014027
0.020814
0.028194
0.036201
0.044859
0.05419
0.064206
0.074915
0.086318
0.098409
0.11118
0.12461
0.13867
0.15334
0.16858
0.18438
0.20063
0.21723
0.23407
0.25105
0.26807
0.285
0.30173
0.31816
0.33416
0.34962
0.36442
0.37844
0.39156
0.40366
0.4146
0.42426
0.43252
0.43926
0.44444
0.44802
0.44998
0.4503
0.44897
0.44602
0.44147
0.43534
0.4277
0.41861
0.40815
0.3964
0.38347
0.36947
0.35455
0.33883
0.32248
0.30566
0.28853
0.27115
0.25367
0.23621
0.2189
0.20184
0.18514
0.16887
0.15313
0.13798
0.12347
0.10965
0.09657
0.084246
0.072697
0.061929
0.05194
0.042719
0.034292
0.026632
0.019695
0.01344
0.0078239
0.0028083
-0.001646
-0.0055766
-0.0090198
-0.012011
-0.014583
-0.01677
-0.018603
-0.020112
-0.021326
-0.022274
-0.022981
-0.023474
-0.023777
-0.023913
-0.023903
-0.023769
-0.02353
-0.023204
-0.022808
-0.022358
-0.021842
-0.021258
-0.020617
-0.019931
-0.019209
-0.01846
-0.017692
-0.016912
-0.016127
-0.015341
-0.01456
-0.013786
-0.013023
-0.012273
-0.011536
-0.010813
-0.010103
-0.0094042
-0.0087146
-0.0080306
-0.007348
-0.0066622
-0.0059768
-0.0052949
-0.0046174
-0.0039451
-0.0032786
-0.0026183
-0.0019643
-0.0013168
-0.00067557
-4.0202e-05
0.0005898
0.0012152
0.0018368
0.0024559
0.0030736
0.0036915
0.0043112
0.0049346
0.0055637
0.0062008
0.0068482
0.00752
0.0082288
0.0089756
0.0097681
0.010621
0.011555
0.012599
0.013787
0.01516
0.016768
0.018665
0.020912
0.023579
0.02674
0.030479
0.034882
0.039969
0.045839
0.052641
0.06049
0.069467
0.079616
0.090949
0.10344
0.11703
0.13162
0.14709
0.16327
0.17995
0.19692
0.21389
0.23057
0.24672
0.26194
0.27583
0.28803
0.29825
0.30624
0.31182
0.31487
0.31531
0.31313
0.30837
0.30113
0.29156
0.27977
0.26605
0.25084
0.23454
0.21754
0.20017
0.18274
0.16553
0.14878
0.13269
0.11745
0.10319
0.090029
0.078029
0.067236
0.057657
0.049265
0.041896
0.035499
0.030123
0.0257
0.022042
0.018842
0.015675
0.011996
0.0071427
0.00033281
-0.0092995
-0.022612
-0.040563
-0.063092
-0.088961
-0.11575
-0.13988
-0.15691
-0.16103
-0.14619
-0.10739
-0.040733
0.056614
0.18642
0.34648
0.52739
0.71633
0.89743
1.0518
1.1577
1.2
1.1703
1.068
0.90322
0.69756
0.48347
0.28471
0.10748
-0.038732
-0.14867
-0.22131
-0.25914
-0.26657
-0.25111
-0.21998
-0.17988
-0.13701
-0.097079
-0.064169
-0.038576
-0.019689
-0.0066227
0.001786
0.0069767
0.010541
0.013234
0.01546
0.017557
0.019766
0.022238
0.02503
0.028133
0.031606
0.035496
0.039839
0.044675
0.050037
0.055961
0.06248
0.069627
0.07743
0.085903
0.095066
0.10494
0.11555
0.12688
0.13893
0.15168
0.16509
0.17914
0.19375
0.20888
0.22444
0.24036
0.25653
0.27285
0.2892
0.30548
0.3216
0.33737
0.35264
0.36725
0.38105
0.39391
0.40571
0.41632
0.42565
0.4336
0.44008
0.44503
0.44837
0.45006
0.45005
0.44832
0.44472
0.43928
0.43213
0.4234
0.41322
0.40174
0.38907
0.37535
0.36069
0.34523
0.32909
0.31238
0.29522
0.27772
0.26001
0.24219
0.22438
0.20667
0.18918
0.172
0.15525
0.13902
0.12341
0.10851
0.094424
0.081209
0.068835
0.057281
0.046531
0.036564
0.027359
0.018894
0.011145
0.004084
-0.0023153
-0.0080826
-0.013249
-0.017847
-0.021912
-0.025478
-0.028584
-0.031269
-0.033575
-0.035542
-0.037217
-0.038644
-0.03987
-0.040917
-0.041797
-0.042521
-0.043104
-0.043558
-0.043895
-0.044128
-0.044267
-0.044326
-0.044316
-0.044247
-0.044131
-0.043979
-0.043801
-0.043607
-0.043409
-0.043215
-0.043036
-0.042869
-0.042704
-0.042542
-0.042382
-0.042225
-0.04207
-0.041918
-0.041768
-0.041621
-0.041476
-0.041333
-0.041193
-0.041055
-0.040919
-0.040786
-0.040654
-0.040525
-0.040398
-0.040272
-0.040149
-0.040027
-0.039906
-0.039788
-0.039662
-0.039495
-0.039304
-0.039104
-0.038911
-0.038731
-0.038571
-0.038428
-0.0383
-0.038176
-0.038042
-0.037881
-0.037671
-0.037382
-0.036985
-0.036442
-0.035714
-0.034754
-0.033514
-0.031939
-0.02997
-0.027544
-0.024597
-0.021069
-0.016824
-0.011727
-0.0056694
0.0014344
0.0096459
0.019002
0.029517
0.041178
0.053952
0.067778
0.082574
0.098255
0.11461
0.13128
0.14792
0.16419
0.17978
0.19435
0.2076
0.21923
0.22895
0.23647
0.24153
0.24386
0.24335
0.2401
0.23424
0.22594
0.21539
0.20283
0.18854
0.1728
0.15596
0.13839
0.12048
0.10268
0.085281
0.068497
0.05254
0.037578
0.023742
0.011124
-0.00022691
-0.010297
-0.019113
-0.026744
-0.033293
-0.038924
-0.04374
-0.047871
-0.051581
-0.055272
-0.059485
-0.064899
-0.07233
-0.082733
-0.097201
-0.1167
-0.14062
-0.16718
-0.19344
-0.21532
-0.22755
-0.22397
-0.19909
-0.14644
-0.061933
0.055484
0.20382
0.37803
0.56799
0.75416
0.91569
1.0325
1.0866
1.0688
0.972
0.80708
0.6045
0.39844
0.20004
0.025128
-0.11626
-0.21961
-0.28484
-0.31543
-0.31649
-0.29473
-0.25844
-0.21646
-0.17497
-0.13831
-0.10901
-0.08773
-0.073314
-0.06382
-0.057843
-0.054081
-0.051516
-0.049423
-0.047365
-0.045196
-0.042844
-0.040191
-0.03719
-0.033793
-0.029956
-0.025637
-0.020794
-0.015389
-0.0093829
-0.0027446
0.0045452
0.012528
0.021239
0.030704
0.040934
0.051932
0.063689
0.076184
0.089386
0.10325
0.11773
0.13275
0.14824
0.16411
0.18026
0.19663
0.21306
0.22939
0.24546
0.26113
0.27624
0.29065
0.30422
0.31681
0.3283
0.33856
0.34748
0.35493
0.3608
0.36498
0.3674
0.36803
0.36688
0.36397
0.35934
0.35304
0.34513
0.33568
0.32477
0.31252
0.29902
0.28441
0.26882
0.2524
0.23532
0.21774
0.19987
0.18189
0.16392
0.14607
0.12846
0.11121
0.094433
0.078214
0.062633
0.047758
0.033641
0.020324
0.0078367
-0.0038051
-0.014598
-0.02455
-0.033683
-0.042023
-0.049572
-0.056371
-0.062469
-0.067912
-0.072744
-0.07701
-0.080752
-0.084011
-0.086826
-0.089236
-0.091277
-0.092986
-0.094396
-0.09554
-0.09645
-0.097157
-0.097688
-0.098072
-0.098324
-0.098418
-0.098369
-0.0982
-0.097935
-0.097593
-0.097192
-0.096748
-0.096276
-0.095787
-0.095293
-0.094801
-0.094319
-0.093851
-0.0934
-0.092966
-0.09255
-0.092146
-0.091752
-0.09136
-0.090961
-0.090545
-0.090109
-0.089661
-0.089205
-0.088745
-0.088285
-0.087828
-0.087377
-0.086934
-0.0865
-0.086076
-0.085662
-0.085257
-0.084861
-0.084471
-0.084085
-0.083702
-0.083315
-0.082923
-0.082519
-0.082099
-0.081657
-0.081185
-0.080677
-0.080126
-0.079521
-0.078855
-0.078118
-0.077299
-0.076371
-0.075283
-0.073981
-0.072404
-0.070487
-0.068156
-0.065335
-0.06194
-0.057882
-0.053065
-0.04739
-0.04075
-0.033033
-0.024143
-0.014049
-0.0027226
0.0098217
0.023526
0.038286
0.053954
0.070337
0.087196
0.10425
0.12117
0.13757
0.15306
0.16716
0.17956
0.18991
0.1979
0.20328
0.2059
0.20568
0.20262
0.1968
0.18838
0.17761
0.16481
0.15029
0.13445
0.11772
0.10052
0.08322
0.066135
0.04956
0.033744
0.018898
0.0051938
-0.0072637
-0.018529
-0.028498
-0.037101
-0.044345
-0.050306
-0.05514
-0.059071
-0.062403
-0.065508
-0.068838
-0.072913
-0.078329
-0.085797
-0.097091
-0.11339
-0.13468
-0.15976
-0.18621
-0.21053
-0.22762
-0.23012
-0.21149
-0.1664
-0.090702
0.018561
0.16309
0.33652
0.5242
0.70894
0.87113
0.98872
1.0381
1.0104
0.91336
0.75997
0.56829
0.36142
0.16386
-0.010825
-0.15372
-0.25973
-0.32761
-0.35998
-0.36253
-0.34187
-0.30691
-0.26527
-0.22302
-0.18464
-0.15304
-0.12949
-0.11294
-0.10162
-0.094026
-0.0889
-0.08524
-0.082301
-0.079593
-0.07685
-0.073906
-0.0707
-0.06718
-0.063298
-0.059007
-0.054263
-0.049023
-0.043249
-0.036904
-0.029952
-0.022361
-0.014102
-0.0051465
0.0045275
0.014925
0.02606
0.037936
0.050547
0.063874
0.077887
0.092544
0.10779
0.12357
0.13979
0.15638
0.17322
0.19022
0.20724
0.22415
0.24081
0.25709
0.27289
0.28802
0.3023
0.31559
0.32774
0.33862
0.34812
0.35614
0.36261
0.36746
0.37063
0.3721
0.37184
0.36985
0.36613
0.36071
0.35354
0.3447
0.33436
0.32269
0.30983
0.29596
0.2812
0.26571
0.24963
0.23309
0.21623
0.19915
0.182
0.16488
0.1479
0.13118
0.11481
0.098889
0.083517
0.068778
0.054758
0.041534
0.029172
0.017669
0.0070059
-0.0028357
-0.011877
-0.02014
-0.02765
-0.034434
-0.040518
-0.045933
-0.050711
-0.054886
-0.058492
-0.061567
-0.06415
-0.066282
-0.068005
-0.069364
-0.070406
-0.071177
-0.071728
-0.072082
-0.072254
-0.072259
-0.072112
-0.071827
-0.071418
-0.070898
-0.070281
-0.069579
-0.068804
-0.067968
-0.067083
-0.06616
-0.065208
-0.064239
-0.063261
-0.062284
-0.061317
-0.060364
-0.059414
-0.058466
-0.05752
-0.056575
-0.055632
-0.054691
-0.053752
-0.052815
-0.05188
-0.050947
-0.050017
-0.049088
-0.048161
-0.047237
-0.046314
-0.045393
-0.044473
-0.043555
-0.042638
-0.041723
-0.040808
-0.039895
-0.038982
-0.038069
-0.037152
-0.036218
-0.035277
-0.034334
-0.033391
-0.032445
-0.031491
-0.030515
-0.029505
-0.028439
-0.027295
-0.026045
-0.024657
-0.023095
-0.021318
-0.019282
-0.016967
-0.014369
-0.011329
-0.0076936
-0.0033272
0.0018855
0.0080408
0.015216
0.02347
0.032841
0.043349
0.054996
0.067763
0.081612
0.096488
0.11231
0.12906
0.14667
0.16463
0.18242
0.19959
0.21571
0.23041
0.24337
0.25433
0.26305
0.26936
0.27312
0.27427
0.27277
0.26863
0.26191
0.25274
0.24126
0.22776
0.21272
0.19662
0.17986
0.16283
0.14588
0.12929
0.11332
0.098195
0.084076
0.071097
0.059347
0.048875
0.039685
0.031743
0.024952
0.019148
0.014358
0.010515
0.0074038
0.0046663
0.001797
-0.0018546
-0.0070847
-0.014812
-0.025924
-0.041746
-0.062593
-0.087425
-0.11384
-0.13809
-0.15533
-0.15957
-0.14355
-0.10152
-0.029413
0.075158
0.21289
0.38204
0.56972
0.75774
0.92695
1.0572
1.1275
1.1217
1.0441
0.90701
0.72643
0.52244
0.31887
0.13443
-0.021624
-0.1433
-0.22788
-0.27598
-0.2915
-0.28122
-0.25209
-0.21246
-0.16942
-0.1283
-0.092653
-0.0643
-0.043447
-0.028936
-0.019133
-0.012627
-0.0082446
-0.0050416
-0.0023096
0.000427
0.0034104
0.0066494
0.010004
0.013655
0.017678
0.022113
0.026997
0.03237
0.038267
0.044724
0.051775
0.059452
0.067787
0.076791
0.086485
0.096895
0.10804
0.11991
0.13251
0.14581
0.15979
0.17441
0.1896
0.20532
0.22148
0.238
0.25479
0.27173
0.28871
0.3056
0.32229
0.33867
0.35457
0.36983
0.38427
0.39777
0.41019
0.4214
0.4313
0.43979
0.4468
0.45225
0.45607
0.45824
0.4587
0.45745
0.45447
0.44964
0.443
0.43471
0.42491
0.41376
0.40141
0.38801
0.37368
0.35857
0.34282
0.32653
0.30985
0.29288
0.27575
0.25856
0.24142
0.22444
0.2077
0.19132
0.17536
0.15994
0.14511
0.13097
0.11758
0.10502
0.093346
0.082515
0.072503
0.063287
0.054844
0.047147
0.040169
0.03388
0.028251
0.023247
0.018837
0.014982
0.011648
0.0087936
0.0063793
0.0043628
0.0027002
0.001346
0.00025314
-0.00061733
-0.0012821
-0.0017554
-0.0020513
-0.0021839
-0.0021676
-0.0020166
-0.0017453
-0.001368
-0.00089926
-0.00035347
0.00025482
0.00091103
0.0016005
0.0023087
0.0030207
0.0037219
0.0043981
0.0050604
0.005718
0.0063708
0.0070189
0.0076624
0.0083011
0.008935
0.0095643
0.010189
0.010809
0.011424
0.012035
0.012641
0.013242
0.013838
0.01443
0.015018
0.015601
0.016179
0.016753
0.017326
0.017896
0.018463
0.019023
0.019577
0.020124
0.020665
0.021203
0.021738
0.022275
0.022817
0.023368
0.023934
0.02452
0.025134
0.025783
0.026475
0.027226
0.028063
0.029019
0.030134
0.031451
0.033023
0.034906
0.037164
0.039866
0.043086
0.046906
0.051414
0.056701
0.062869
0.07002
0.078268
0.087679
0.098265
0.11003
0.12296
0.13696
0.15194
0.16774
0.18416
0.20098
0.21792
0.23468
0.2509
0.26618
0.28011
0.29236
0.30265
0.31066
0.31617
0.31902
0.31913
0.31649
0.31114
0.30323
0.29295
0.28058
0.26645
0.25092
0.2343
0.21703
0.19947
0.18198
0.16486
0.14836
0.13269
0.11803
0.10451
0.092208
0.08117
0.071391
0.062663
0.055028
0.04858
0.043298
0.03904
0.035549
0.032448
0.029245
0.025326
0.019963
0.012308
0.0014204
-0.013649
-0.033583
-0.057838
-0.084547
-0.11051
-0.13135
-0.14115
-0.13373
-0.10356
-0.045694
0.043938
0.16686
0.32119
0.49982
0.69015
0.87413
1.0289
1.1331
1.1698
1.1318
1.0233
0.8592
0.66196
0.45631
0.26228
0.094267
-0.038899
-0.13359
-0.19081
-0.21405
-0.20888
-0.18293
-0.14481
-0.1023
-0.061605
-0.026767
0.0003843
0.019909
0.033006
0.041458
0.046779
0.050191
0.052623
0.054712
0.056806
0.058981
0.061377
0.064082
0.067144
0.070609
0.074522
0.078925
0.08386
0.089364
0.095475
0.10222
0.10962
0.11773
0.12657
0.13616
0.14652
0.15765
0.16952
0.18212
0.19542
0.20936
0.22389
0.23895
0.25445
0.2703
0.28644
0.30276
0.3191
0.33529
0.35118
0.36659
0.38139
0.39543
0.40857
0.42068
0.43165
0.44134
0.44966
0.45649
0.46174
0.46531
0.46713
0.46708
0.46516
0.46142
0.45596
0.44884
0.44016
0.43002
0.41851
0.40575
0.39184
0.3769
0.36106
0.34444
0.3272
0.30945
0.29137
0.27309
0.25479
0.23662
0.21876
0.20138
0.18457
0.16835
0.15279
0.13793
0.12383
0.11051
0.098004
0.086323
0.075478
0.065469
0.056286
0.047913
0.040323
0.033481
0.027344
0.021861
0.01697
0.012612
0.008767
0.0053957
0.0024537
-0.0001009
-0.0023073
-0.0042024
-0.0058207
-0.0071943
-0.0083527
-0.0093233
-0.010131
-0.010798
-0.011344
-0.011787
-0.012142
-0.01242
-0.012616
-0.012738
-0.0128
-0.012811
-0.012784
-0.012726
-0.012647
-0.012554
-0.012454
-0.012353
-0.012254
-0.012162
-0.012079
-0.012006
-0.011946
-0.011897
-0.011857
-0.011826
-0.0118
-0.011774
-0.011744
-0.011707
-0.01167
-0.011633
-0.011599
-0.011568
-0.01154
-0.011515
-0.011495
-0.011477
-0.011463
-0.01145
-0.011438
-0.011425
-0.011409
-0.011389
-0.011362
-0.011326
-0.011277
-0.011212
-0.011126
-0.010998
-0.01082
-0.010583
-0.010272
-0.0098598
-0.0093135
-0.0085907
-0.0076404
-0.0064032
-0.0048112
-0.002788
-0.00024864
0.0029003
0.0067608
0.011443
0.017037
0.023619
0.03132
0.040227
0.050384
0.061792
0.07441
0.08815
0.10289
0.11844
0.13461
0.15113
0.16777
0.18408
0.19961
0.21394
0.22671
0.23759
0.24629
0.25259
0.25628
0.25721
0.25528
0.25037
0.24264
0.23246
0.22017
0.20613
0.19067
0.17414
0.15687
0.1392
0.12145
0.10394
0.087002
0.070941
0.056046
0.042364
0.029957
0.018881
0.0091461
0.00071717
-0.0064843
-0.012582
-0.017744
-0.022183
-0.026156
-0.029967
-0.033952
-0.038707
-0.045605
-0.055823
-0.070156
-0.089021
-0.11245
-0.13945
-0.16614
-0.18759
-0.19832
-0.19235
-0.16314
-0.10535
-0.014231
0.11246
0.27129
0.4532
0.64352
0.82286
0.96561
1.0483
1.0579
0.99154
0.85691
0.67506
0.47213
0.27022
0.08714
-0.063724
-0.17615
-0.25005
-0.28774
-0.29374
-0.27481
-0.23994
-0.19842
-0.15673
-0.11965
-0.089997
-0.068584
-0.054267
-0.044905
-0.039095
-0.035496
-0.03307
-0.031082
-0.029096
-0.026978
-0.024657
-0.02202
-0.019016
-0.015597
-0.011719
-0.0073361
-0.0024071
0.0031087
0.00925
0.016031
0.023479
0.031644
0.040563
0.050261
0.06075
0.072028
0.084084
0.09689
0.11041
0.12459
0.13936
0.15465
0.17037
0.18642
0.20268
0.21903
0.23532
0.2514
0.26716
0.28246
0.29708
0.31086
0.32363
0.33525
0.34559
0.35452
0.36194
0.36776
0.37191
0.37433
0.37497
0.37379
0.37079
0.36581
0.35893
0.35032
0.34014
0.32855
0.31571
0.30176
0.28686
0.27116
0.25479
0.23789
0.22059
0.20304
0.18534
0.16763
0.15002
0.13263
0.11557
0.098954
0.082876
0.06744
0.052742
0.038876
0.025927
0.013899
0.0027557
-0.0075289
-0.016982
-0.025633
-0.033512
-0.040651
-0.047081
-0.052839
-0.057958
-0.062476
-0.066431
-0.069863
-0.072811
-0.075319
-0.077429
-0.079187
-0.080638
-0.08183
-0.082811
-0.083615
-0.084253
-0.084741
-0.085094
-0.085325
-0.08545
-0.085479
-0.085426
-0.085302
-0.085118
-0.084884
-0.08461
-0.084303
-0.083973
-0.083627
-0.083272
-0.082913
-0.082557
-0.082207
-0.081859
-0.081509
-0.081158
-0.080806
-0.080454
-0.080101
-0.079748
-0.079395
-0.079042
-0.078689
-0.078337
-0.077984
-0.077631
-0.077277
-0.076923
-0.076567
-0.076211
-0.075852
-0.075491
-0.075126
-0.074758
-0.074386
-0.074009
-0.073626
-0.073235
-0.072824
-0.072387
-0.071931
-0.071452
-0.070941
-0.070383
-0.069754
-0.069024
-0.068157
-0.067109
-0.065829
-0.064262
-0.062341
-0.059998
-0.057213
-0.053879
-0.049815
-0.044867
-0.03891
-0.031846
-0.023608
-0.014154
-0.0034728
0.0084208
0.021483
0.03564
0.050793
0.066812
0.083581
0.10077
0.11788
0.13448
0.15014
0.16448
0.17717
0.18789
0.19637
0.20238
0.20571
0.2062
0.20371
0.19821
0.18996
0.17934
0.16671
0.15244
0.13687
0.12038
0.10331
0.085997
0.0688
0.052055
0.036099
0.021256
0.0076392
-0.0046926
-0.015691
-0.025346
-0.033687
-0.040779
-0.046728
-0.051679
-0.055812
-0.05935
-0.062538
-0.06578
-0.070081
-0.07647
-0.085898
-0.099237
-0.11728
-0.14052
-0.16699
-0.19279
-0.2132
-0.22263
-0.21468
-0.18227
-0.12035
-0.02349
0.10953
0.27406
0.45956
0.64965
0.82277
0.9517
1.0158
1.0057
0.92262
0.77844
0.59246
0.38893
0.1883
0.0065044
-0.14498
-0.25937
-0.33642
-0.37866
-0.3901
-0.37629
-0.34425
-0.30254
-0.25954
-0.21962
-0.18561
-0.15901
-0.13998
-0.12734
-0.11881
-0.11302
-0.10902
-0.10597
-0.10329
-0.10058
-0.097644
-0.094499
-0.091071
-0.087288
-0.083108
-0.078491
-0.073398
-0.067789
-0.061629
-0.054881
-0.04751
-0.039484
-0.030786
-0.021391
-0.01127
-0.0004072
0.011204
0.023557
0.036636
0.050413
0.064849
0.079895
0.095489
0.11156
0.12802
0.14479
0.16174
0.1788
0.19585
0.21272
0.22925
0.2453
0.26071
0.27535
0.28908
0.30177
0.31332
0.3236
0.3325
0.33993
0.34579
0.34999
0.35244
0.35312
0.35203
0.34923
0.34475
0.33865
0.331
0.32187
0.31136
0.29956
0.28658
0.27253
0.25754
0.24176
0.22532
0.20839
0.19113
0.17372
0.15635
0.13912
0.12213
0.10549
0.089282
0.073611
0.058549
0.044162
0.030505
0.017621
0.0055399
-0.005717
-0.016141
-0.025735
-0.034513
-0.042501
-0.049734
-0.056223
-0.061999
-0.067109
-0.071599
-0.075512
-0.078891
-0.081778
-0.084212
-0.086231
-0.087872
-0.08917
-0.090159
-0.09087
-0.091335
-0.091583
-0.09164
-0.091534
-0.09129
-0.090924
-0.090414
-0.089771
-0.089017
-0.088171
-0.087251
-0.086276
-0.085259
-0.084215
-0.083154
-0.082087
-0.081022
-0.079966
-0.078923
-0.077897
-0.07689
-0.075901
-0.074929
-0.073969
-0.073018
-0.072067
-0.071109
-0.070134
-0.069143
-0.068142
-0.067136
-0.06613
-0.065127
-0.064132
-0.063145
-0.062171
-0.061209
-0.060261
-0.059326
-0.058405
-0.057495
-0.056595
-0.055703
-0.054815
-0.053927
-0.053036
-0.052135
-0.051219
-0.050282
-0.049317
-0.048315
-0.04727
-0.046171
-0.045009
-0.043775
-0.042456
-0.041034
-0.03946
-0.03768
-0.035635
-0.033259
-0.030484
-0.027234
-0.023429
-0.018985
-0.01381
-0.0078088
-0.00088096
0.0070797
0.016167
0.026413
0.037856
0.050499
0.0643
0.079174
0.094992
0.11158
0.12872
0.14616
0.16359
0.18066
0.19699
0.21215
0.22585
0.23771
0.24739
0.25463
0.25924
0.26111
0.26019
0.25651
0.25019
0.24141
0.2304
0.2174
0.20279
0.18703
0.17052
0.15364
0.13672
0.12007
0.10395
0.088578
0.074153
0.060825
0.048709
0.037884
0.028309
0.019964
0.012869
0.0069755
0.0021676
-0.0017359
-0.0049829
-0.0078879
-0.010832
-0.014262
-0.0185
-0.024682
-0.034689
-0.049507
-0.069191
-0.092861
-0.1187
-0.14398
-0.16455
-0.17388
-0.16559
-0.13411
-0.074627
0.016867
0.1427
0.29982
0.47997
0.67004
0.85213
1.0035
1.0989
1.1249
1.079
0.96629
0.80018
0.60198
0.39699
0.20122
0.027374
-0.11567
-0.22297
-0.29348
-0.33009
-0.33701
-0.32081
-0.28924
-0.24905
-0.20601
-0.16487
-0.12944
-0.10185
-0.081311
-0.066489
-0.056135
-0.049093
-0.044296
-0.040771
-0.037685
-0.034721
-0.031744
-0.028632
-0.025287
-0.021629
-0.0176
-0.013163
-0.0083008
-0.0030037
0.0027748
0.0090803
0.015953
0.023427
0.031532
0.040291
0.049723
0.059841
0.070652
0.082158
0.094356
0.10724
0.12079
0.135
0.14991
0.16543
0.18147
0.1979
0.21464
0.23157
0.24858
0.26557
0.28243
0.29904
0.31529
0.33108
0.34629
0.36081
0.37453
0.38732
0.39909
0.4097
0.41904
0.42699
0.43345
0.43828
0.44139
0.44279
0.44249
0.44054
0.43696
0.4318
0.42512
0.41698
0.40745
0.39662
0.38457
0.3714
0.35722
0.34214
0.3263
0.30981
0.29282
0.27549
0.25797
0.24043
0.22303
0.20588
0.18902
0.17255
0.15656
0.14111
0.12628
0.11212
0.098665
0.085961
0.07403
0.062891
0.052549
0.043004
0.034243
0.026247
0.018984
0.012415
0.0064986
0.0012259
-0.0034434
-0.0075523
-0.011142
-0.014253
-0.016924
-0.019191
-0.021088
-0.022651
-0.02391
-0.024895
-0.025636
-0.02616
-0.026491
-0.026655
-0.026672
-0.026564
-0.026349
-0.026008
-0.02554
-0.024966
-0.024306
-0.023578
-0.022798
-0.021982
-0.021143
-0.020291
-0.019438
-0.01859
-0.017754
-0.016935
-0.016136
-0.015358
-0.0146
-0.013861
-0.013136
-0.01242
-0.011705
-0.010984
-0.010255
-0.0095274
-0.0088029
-0.0080826
-0.0073676
-0.0066586
-0.0059565
-0.0052617
-0.0045745
-0.003895
-0.0032232
-0.0025589
-0.0019015
-0.0012505
-0.00060498
3.6008e-05
0.00067369
0.0013095
0.0019449
0.0025818
0.0032221
0.0038679
0.0045216
0.0051858
0.005863
0.0065564
0.0072749
0.0080392
0.0088564
0.0097396
0.010709
0.011792
0.013023
0.014444
0.016104
0.018059
0.020371
0.023112
0.026359
0.030196
0.034713
0.039937
0.045984
0.052994
0.061071
0.070286
0.080677
0.092245
0.10496
0.11875
0.13352
0.14914
0.16543
0.1822
0.1992
0.2162
0.23293
0.24896
0.26386
0.27729
0.28892
0.2985
0.30582
0.3107
0.31305
0.31278
0.30989
0.30441
0.29641
0.286
0.27354
0.25943
0.24403
0.22768
0.21073
0.19346
0.17616
0.15909
0.1425
0.1266
0.11159
0.097651
0.08492
0.073251
0.062708
0.053426
0.045465
0.038809
0.033366
0.028966
0.025363
0.022238
0.019191
0.015748
0.011359
0.0053963
-0.0028422
-0.01423
-0.029979
-0.050479
-0.074993
-0.10165
-0.12746
-0.14831
-0.15842
-0.15212
-0.12419
-0.069943
0.014708
0.13157
0.27966
0.45338
0.64214
0.83034
0.99743
1.1217
1.1863
1.1818
1.1073
0.97056
0.78813
0.58441
0.38056
0.19244
0.03189
-0.093965
-0.18274
-0.23539
-0.25558
-0.25024
-0.22614
-0.18978
-0.14744
-0.10514
-0.068436
-0.039241
-0.017083
-0.0012265
0.0093561
0.015985
0.020262
0.023358
0.025755
0.027855
0.02996
0.032265
0.034864
0.037756
0.040986
0.044608
0.048658
0.053174
0.058192
0.063747
0.069874
0.076604
0.08397
0.091982
0.10067
0.11007
0.12018
0.13102
0.14258
0.15485
0.1678
0.18141
0.19561
0.21036
0.2256
0.24124
0.25721
0.27339
0.28971
0.30608
0.32236
0.33838
0.35398
0.36903
0.38338
0.3969
0.40947
0.42097
0.43129
0.44033
0.44799
0.4542
0.45887
0.46192
0.4633
0.46294
0.46076
0.45681
0.45119
0.44398
0.43528
0.42519
0.41379
0.4012
0.38753
0.37287
0.35736
0.34108
0.32418
0.30677
0.28898
0.27093
0.25275
0.23459
0.21658
0.19885
0.18157
0.16486
0.1488
0.13339
0.11868
0.10469
0.091451
0.078981
0.067293
0.056392
0.04628
0.03695
0.02839
0.020581
0.013499
0.0071117
0.001383
-0.0037312
-0.0082804
-0.012321
-0.015911
-0.01907
-0.021829
-0.024224
-0.026292
-0.028066
-0.029577
-0.030856
-0.031928
-0.032819
-0.033553
-0.034149
-0.034627
-0.035004
-0.035294
-0.035509
-0.03566
-0.035753
-0.035788
-0.035775
-0.03572
-0.03563
-0.035513
-0.035373
-0.035217
-0.035049
-0.034874
-0.034696
-0.034518
-0.034342
-0.034172
-0.034009
-0.033855
-0.033709
-0.033572
-0.033444
-0.033323
-0.03321
-0.0331
-0.032993
-0.032884
-0.032772
-0.032656
-0.03254
-0.032425
-0.032314
-0.032207
-0.032104
-0.032006
-0.031911
-0.03182
-0.03173
-0.031641
-0.031548
-0.031451
-0.031344
-0.031226
-0.031091
-0.030935
-0.030753
-0.03054
-0.030295
-0.029997
-0.029616
-0.029117
-0.02846
-0.0276
-0.026487
-0.025069
-0.023285
-0.021072
-0.018361
-0.01508
-0.011151
-0.0064893
-0.001009
0.0053826
0.012783
0.021293
0.031015
0.041943
0.054037
0.06724
0.081457
0.096556
0.11237
0.12867
0.14524
0.16177
0.17794
0.19339
0.20771
0.22059
0.2317
0.24072
0.24739
0.25151
0.25296
0.25169
0.24772
0.24112
0.23206
0.22076
0.20751
0.19263
0.17642
0.15929
0.14164
0.12382
0.10614
0.088868
0.072252
0.056489
0.041741
0.028134
0.015753
0.0046025
-0.005361
-0.014085
-0.021575
-0.027903
-0.033201
-0.037666
-0.04156
-0.045205
-0.048991
-0.053368
-0.058747
-0.066044
-0.077049
-0.09275
-0.11323
-0.13765
-0.16428
-0.19048
-0.21273
-0.2245
-0.21923
-0.19146
-0.13687
-0.052233
0.064528
0.21442
0.39119
0.57965
0.76303
0.92338
1.0415
1.0972
1.0783
0.98842
0.83855
0.64814
0.44254
0.24197
0.062498
-0.085295
-0.19629
-0.26948
-0.30773
-0.31575
-0.29959
-0.26668
-0.22563
-0.18344
-0.14474
-0.11253
-0.088115
-0.07113
-0.059726
-0.052365
-0.047729
-0.044713
-0.042482
-0.040477
-0.038409
-0.036221
-0.033787
-0.031041
-0.027936
-0.024427
-0.020474
-0.016035
-0.011071
-0.0055456
0.00057673
0.0073186
0.014707
0.022785
0.031582
0.04112
0.051409
0.06245
0.074232
0.086734
0.099925
0.11376
0.1282
0.14317
0.15859
0.1744
0.19049
0.20679
0.22317
0.23947
0.25554
0.27123
0.2864
0.3009
0.31462
0.32741
0.33915
0.34972
0.359
0.36689
0.37326
0.37802
0.38108
0.38237
0.38192
0.37973
0.37584
0.37029
0.36313
0.35443
0.34425
0.3327
0.31987
0.30588
0.29084
0.27489
0.25819
0.24089
0.22315
0.20517
0.18714
0.16914
0.15128
0.13369
0.11648
0.099741
0.083563
0.068019
0.053173
0.039075
0.025765
0.01327
0.0016059
-0.009224
-0.019227
-0.028423
-0.036843
-0.044493
-0.051401
-0.057613
-0.063175
-0.068129
-0.07252
-0.076388
-0.079773
-0.082714
-0.085249
-0.087412
-0.08924
-0.090765
-0.092019
-0.093034
-0.093838
-0.094459
-0.094925
-0.09526
-0.095442
-0.095471
-0.095373
-0.095168
-0.094878
-0.094521
-0.094115
-0.093673
-0.09321
-0.092737
-0.092262
-0.091794
-0.091338
-0.090897
-0.090474
-0.090068
-0.089678
-0.0893
-0.088929
-0.088555
-0.088172
-0.087769
-0.08735
-0.086922
-0.086488
-0.086051
-0.085616
-0.085183
-0.084757
-0.084337
-0.083926
-0.083523
-0.083128
-0.082742
-0.082362
-0.081988
-0.081618
-0.081247
-0.080875
-0.080496
-0.080108
-0.079704
-0.07928
-0.078831
-0.078349
-0.077829
-0.077263
-0.076643
-0.075962
-0.075209
-0.074359
-0.07337
-0.072196
-0.070783
-0.069074
-0.067003
-0.0645
-0.061488
-0.057883
-0.053596
-0.04853
-0.042584
-0.03565
-0.027623
-0.018464
-0.0081183
0.0034396
0.01619
0.030069
0.044971
0.060745
0.077197
0.094088
0.11114
0.12802
0.14437
0.15976
0.17383
0.18625
0.19667
0.20476
0.21032
0.21317
0.21324
0.21052
0.2051
0.1971
0.18675
0.17435
0.16014
0.14455
0.128
0.11089
0.093571
0.076369
0.05957
0.043424
0.028148
0.013922
0.00088993
-0.010923
-0.021569
-0.030924
-0.038933
-0.045615
-0.05107
-0.055472
-0.059074
-0.062204
-0.06527
-0.068755
-0.073219
-0.079299
-0.087747
-0.10019
-0.11762
-0.13986
-0.16549
-0.19191
-0.21541
-0.23084
-0.23117
-0.21019
-0.16281
-0.085123
0.025647
0.17097
0.34423
0.53168
0.71698
0.88131
1.0033
1.0597
1.0407
0.95253
0.80669
0.61985
0.41375
0.21303
0.032597
-0.11847
-0.23444
-0.31306
-0.35548
-0.36633
-0.35257
-0.32128
-0.28082
-0.23794
-0.19767
-0.16326
-0.13625
-0.11654
-0.10285
-0.093672
-0.087665
-0.083713
-0.080906
-0.078535
-0.076102
-0.073313
-0.070079
-0.066519
-0.062853
-0.058851
-0.054428
-0.049544
-0.044161
-0.038242
-0.031754
-0.024663
-0.01694
-0.008555
0.00051751
0.0103
0.020797
0.032018
0.043966
0.056635
0.070004
0.084043
0.098712
0.11396
0.12972
0.14592
0.16247
0.17928
0.19624
0.21323
0.23012
0.24677
0.26309
0.27893
0.29412
0.3085
0.32192
0.33424
0.34536
0.35515
0.36352
0.37039
0.3757
0.37938
0.3814
0.38171
0.38032
0.37721
0.37228
0.36553
0.35714
0.34726
0.33604
0.32363
0.31019
0.29584
0.28073
0.265
0.24876
0.23214
0.21527
0.19825
0.1812
0.16421
0.1474
0.13086
0.11469
0.098957
0.083762
0.069178
0.055281
0.042141
0.029823
0.018385
0.0078256
-0.001893
-0.010803
-0.018938
-0.02633
-0.033012
-0.039018
-0.044382
-0.049137
-0.053317
-0.056955
-0.060087
-0.062747
-0.064969
-0.066788
-0.068239
-0.069356
-0.070176
-0.070734
-0.071066
-0.071206
-0.071192
-0.071054
-0.070801
-0.070441
-0.069987
-0.069448
-0.068834
-0.068154
-0.067417
-0.066631
-0.065803
-0.064941
-0.064051
-0.063139
-0.06221
-0.061269
-0.060321
-0.059368
-0.058415
-0.057464
-0.056516
-0.055573
-0.054628
-0.053683
-0.052738
-0.051794
-0.050852
-0.049913
-0.048978
-0.048047
-0.047121
-0.0462
-0.045283
-0.044371
-0.043463
-0.042559
-0.041658
-0.04076
-0.039863
-0.038966
-0.038068
-0.037168
-0.036264
-0.035353
-0.034435
-0.033507
-0.032567
-0.031613
-0.030641
-0.029643
-0.028598
-0.0275
-0.026335
-0.025083
-0.023716
-0.022197
-0.020484
-0.018523
-0.016257
-0.013617
-0.010529
-0.0069096
-0.0026694
0.0022631
0.0079382
0.014515
0.022125
0.030866
0.040798
0.051944
0.064294
0.077799
0.092374
0.1079
0.12422
0.14114
0.15844
0.17588
0.19319
0.2099
0.22558
0.23984
0.25236
0.26284
0.27106
0.27682
0.28
0.2805
0.27829
0.27337
0.26571
0.25547
0.24312
0.22911
0.21386
0.19775
0.18114
0.16433
0.14763
0.13129
0.11554
0.10056
0.086516
0.073541
0.061732
0.051154
0.041841
0.033794
0.026922
0.021142
0.016368
0.012448
0.0091615
0.0062211
0.0032724
3.0962e-05
-0.0045921
-0.01187
-0.022717
-0.037682
-0.056958
-0.080374
-0.107
-0.13279
-0.15256
-0.16103
-0.15281
-0.1224
-0.064198
0.025757
0.14922
0.30444
0.48408
0.67522
0.85939
1.0149
1.1194
1.1575
1.1229
1.019
0.85835
0.66294
0.45786
0.26035
0.084767
-0.059166
-0.16635
-0.23633
-0.27157
-0.27687
-0.25994
-0.22792
-0.18735
-0.14418
-0.10371
-0.070329
-0.044666
-0.025705
-0.012349
-0.0034168
0.0023575
0.0063253
0.0095468
0.012368
0.015061
0.017839
0.020854
0.024197
0.027899
0.031956
0.036424
0.041348
0.046766
0.052714
0.059227
0.066337
0.074074
0.082465
0.091537
0.10131
0.11179
0.12299
0.1349
0.14752
0.16084
0.17482
0.18943
0.2046
0.22029
0.23641
0.25288
0.26962
0.28651
0.30343
0.32027
0.33688
0.35314
0.36894
0.38414
0.39855
0.41203
0.42443
0.43562
0.44551
0.45399
0.46097
0.4664
0.4702
0.47235
0.47282
0.47159
0.46866
0.46406
0.45776
0.44972
0.44009
0.42904
0.41672
0.4033
0.38892
0.37373
0.35787
0.34148
0.32468
0.30759
0.29035
0.27305
0.25581
0.23872
0.2219
0.20542
0.18937
0.17383
0.15888
0.14459
0.13102
0.11822
0.10627
0.09517
0.084903
0.075439
0.066753
0.058817
0.051604
0.045083
0.039224
0.033995
0.029362
0.02529
0.021744
0.018687
0.01608
0.013883
0.012057
0.010558
0.0093438
0.0083696
0.0076007
0.0070214
0.0066177
0.0063759
0.0062823
0.0063232
0.0064854
0.0067553
0.0071199
0.0075659
0.0080804
0.0086505
0.0092635
0.0099065
0.010567
0.011233
0.011891
0.012531
0.013152
0.01377
0.014382
0.014991
0.015594
0.016193
0.016787
0.017377
0.017962
0.018542
0.019118
0.01969
0.020257
0.020819
0.021377
0.02193
0.022479
0.023023
0.023563
0.024099
0.024631
0.025163
0.025694
0.026219
0.026738
0.027251
0.027757
0.028258
0.028756
0.029256
0.02976
0.030274
0.030805
0.031359
0.031946
0.032573
0.033251
0.033987
0.034801
0.035733
0.036832
0.038148
0.039738
0.04166
0.04398
0.046765
0.05009
0.054032
0.058672
0.064097
0.070398
0.07767
0.086011
0.095526
0.10626
0.11817
0.13123
0.14534
0.16038
0.1762
0.19261
0.20937
0.22622
0.24287
0.25897
0.27415
0.28801
0.30013
0.31026
0.31813
0.32353
0.32629
0.32634
0.32367
0.31832
0.31041
0.30014
0.28777
0.27362
0.25808
0.2415
0.22422
0.20662
0.18906
0.17185
0.15524
0.13944
0.12465
0.11098
0.098527
0.087332
0.077397
0.068666
0.061032
0.054514
0.049068
0.044559
0.04076
0.037353
0.033926
0.029977
0.024934
0.018644
0.009271
-0.0048481
-0.024226
-0.048225
-0.075058
-0.10179
-0.12433
-0.13744
-0.1361
-0.11402
-0.063684
0.01912
0.13525
0.28222
0.45418
0.64193
0.82972
0.99529
1.117
1.1766
1.1627
1.075
0.92639
0.73745
0.53208
0.33223
0.15396
0.0080953
-0.099752
-0.16916
-0.20236
-0.20557
-0.18677
-0.1534
-0.11236
-0.070063
-0.032356
-0.0026193
0.019612
0.035276
0.045541
0.051804
0.055686
0.058449
0.060595
0.06252
0.064513
0.066753
0.069308
0.072182
0.075444
0.079136
0.0833
0.087975
0.0932
0.099014
0.10545
0.11254
0.12032
0.12881
0.13805
0.14804
0.15879
0.17029
0.18253
0.19547
0.20907
0.22329
0.23807
0.25334
0.26907
0.28513
0.30138
0.31768
0.33386
0.34979
0.36533
0.38034
0.39468
0.40823
0.42084
0.43239
0.44276
0.45182
0.45944
0.46552
0.46994
0.47258
0.4734
0.47241
0.46966
0.46519
0.45904
0.45128
0.44199
0.43125
0.41915
0.40579
0.39131
0.37581
0.35943
0.34233
0.32465
0.30657
0.28827
0.26992
0.25174
0.23381
0.21622
0.19906
0.18242
0.1664
0.15104
0.13642
0.12257
0.10953
0.097329
0.085975
0.075471
0.065807
0.056962
0.048906
0.041594
0.034975
0.02902
0.023702
0.018972
0.014781
0.011085
0.0078408
0.0050066
0.0025437
0.00041498
-0.0014143
-0.0029768
-0.0043032
-0.0054219
-0.0063595
-0.0071401
-0.0077859
-0.0083171
-0.0087512
-0.0090769
-0.0092953
-0.0094252
-0.0094836
-0.0094863
-0.0094473
-0.0093792
-0.009293
-0.009198
-0.0091021
-0.0090117
-0.0089315
-0.0088648
-0.008813
-0.0087764
-0.0087535
-0.0087413
-0.0087351
-0.0087288
-0.0087149
-0.0086886
-0.0086546
-0.0086168
-0.0085785
-0.0085429
-0.0085121
-0.0084882
-0.0084724
-0.0084657
-0.0084683
-0.0084801
-0.0085003
-0.0085277
-0.0085605
-0.0085966
-0.008633
-0.0086664
-0.0086931
-0.0087087
-0.0087083
-0.0086866
-0.0086375
-0.0085548
-0.0084314
-0.00826
-0.0080324
-0.0077328
-0.0073238
-0.0067688
-0.006024
-0.0050379
-0.003751
-0.0020962
1.2896e-06
0.0026241
0.0058627
0.0098153
0.014588
0.020294
0.027028
0.034842
0.043835
0.054067
0.065547
0.078239
0.092059
0.10688
0.12251
0.13873
0.15527
0.17181
0.18797
0.20339
0.21771
0.23051
0.24137
0.24997
0.25608
0.2595
0.26013
0.25794
0.25297
0.24533
0.23519
0.22267
0.20821
0.19231
0.17539
0.15787
0.14012
0.12246
0.10517
0.088514
0.072701
0.057903
0.044255
0.031855
0.02076
0.010988
0.0023518
-0.0051497
-0.011458
-0.01664
-0.020891
-0.024531
-0.028007
-0.031895
-0.036893
-0.043829
-0.053591
-0.06734
-0.086153
-0.10976
-0.13647
-0.16318
-0.18547
-0.19782
-0.19294
-0.16447
-0.10744
-0.018348
0.10491
0.26217
0.44296
0.63138
0.80911
0.95543
1.0472
1.0659
1.0064
0.87429
0.69128
0.48812
0.28464
0.099845
-0.053512
-0.1688
-0.24463
-0.28392
-0.29149
-0.27393
-0.23962
-0.19816
-0.15651
-0.1193
-0.089337
-0.067595
-0.053196
-0.043827
-0.037972
-0.034346
-0.031917
-0.029944
-0.027975
-0.025853
-0.023532
-0.02089
-0.017878
-0.014448
-0.010555
-0.0061547
-0.0012039
0.0043379
0.01051
0.017326
0.024814
0.033026
0.041998
0.051753
0.062303
0.073646
0.085767
0.098639
0.11222
0.12646
0.14129
0.15664
0.1724
0.18848
0.20476
0.2211
0.23737
0.25342
0.26915
0.28437
0.29888
0.31252
0.32513
0.33656
0.34668
0.35538
0.36255
0.3681
0.37196
0.37407
0.37439
0.37288
0.36948
0.36409
0.35685
0.34792
0.33746
0.32562
0.31256
0.29843
0.28338
0.26754
0.25105
0.23407
0.2167
0.1991
0.18138
0.16367
0.14609
0.12875
0.11177
0.095269
0.079342
0.064097
0.049636
0.036056
0.02341
0.011657
0.00077706
-0.0092553
-0.018465
-0.02688
-0.034528
-0.041441
-0.04765
-0.053191
-0.0581
-0.062413
-0.066171
-0.069415
-0.072187
-0.074533
-0.076499
-0.078134
-0.079486
-0.080609
-0.081536
-0.082282
-0.082862
-0.083292
-0.083588
-0.083764
-0.083834
-0.083811
-0.083708
-0.083537
-0.083309
-0.083036
-0.082726
-0.082391
-0.082037
-0.081675
-0.081311
-0.080952
-0.080602
-0.080252
-0.0799
-0.079548
-0.079194
-0.07884
-0.078486
-0.078131
-0.077776
-0.077421
-0.077066
-0.07671
-0.076354
-0.075998
-0.075641
-0.075283
-0.074923
-0.074563
-0.0742
-0.073836
-0.073469
-0.073098
-0.072724
-0.072347
-0.071964
-0.071571
-0.071155
-0.070721
-0.070273
-0.069809
-0.069319
-0.068788
-0.068194
-0.067508
-0.066697
-0.065719
-0.064528
-0.06307
-0.061286
-0.059112
-0.056547
-0.053464
-0.049682
-0.045048
-0.039432
-0.032735
-0.024882
-0.015825
-0.005546
0.0059499
0.018629
0.03243
0.047266
0.063023
0.079581
0.09669
0.11387
0.13066
0.14664
0.16141
0.17463
0.18596
0.19513
0.20187
0.20597
0.20725
0.20555
0.2008
0.19324
0.18321
0.17109
0.15721
0.14195
0.12564
0.10866
0.09135
0.074073
0.057185
0.041044
0.025985
0.012127
-0.00045963
-0.011719
-0.021634
-0.030226
-0.037552
-0.04371
-0.048832
-0.053089
-0.05669
-0.059832
-0.06295
-0.067073
-0.073191
-0.082218
-0.094987
-0.11225
-0.1347
-0.16131
-0.18774
-0.20896
-0.21944
-0.21324
-0.18394
-0.1248
-0.031912
0.096784
0.25815
0.44245
0.63342
0.80826
0.94138
1.0112
1.0063
0.92595
0.78061
0.59166
0.38737
0.18748
0.0079428
-0.14003
-0.25015
-0.321
-0.35599
-0.35985
-0.34052
-0.30654
-0.26524
-0.22278
-0.18417
-0.15311
-0.13016
-0.11382
-0.10261
-0.095206
-0.090378
-0.087034
-0.084223
-0.081508
-0.078752
-0.075835
-0.072653
-0.069123
-0.065181
-0.060784
-0.055907
-0.05054
-0.044643
-0.038159
-0.031039
-0.023243
-0.014737
-0.0054976
0.0044902
0.015234
0.026732
0.038975
0.051944
0.065614
0.079949
0.094905
0.11043
0.12651
0.14304
0.15988
0.17689
0.19393
0.21086
0.22754
0.24383
0.2596
0.27472
0.28905
0.30247
0.31483
0.32601
0.33589
0.34434
0.35123
0.35644
0.35987
0.36152
0.36139
0.35949
0.35586
0.35056
0.34362
0.33513
0.32517
0.31384
0.30123
0.28748
0.27272
0.25708
0.24075
0.22387
0.20664
0.18926
0.17187
0.15457
0.13748
0.12073
0.10441
0.088637
0.073476
0.059002
0.045273
0.032333
0.020213
0.0089343
-0.0014972
-0.011087
-0.019853
-0.027823
-0.035004
-0.041424
-0.047134
-0.052178
-0.056602
-0.060449
-0.063764
-0.066585
-0.068954
-0.07091
-0.072488
-0.073727
-0.074659
-0.07532
-0.07574
-0.075951
-0.075982
-0.075862
-0.075602
-0.075169
-0.074585
-0.073877
-0.073068
-0.072181
-0.071237
-0.070252
-0.069243
-0.068223
-0.067202
-0.066189
-0.065192
-0.064214
-0.063257
-0.062322
-0.061405
-0.060503
-0.059608
-0.058711
-0.057801
-0.056875
-0.055945
-0.055013
-0.05408
-0.05315
-0.052223
-0.051301
-0.050384
-0.049474
